v1,v2,v3
215,268,507
209,264,515
203,251,514
202,239,518
202,228,522
216,221,531
210,221,542
204,203,515
194,202,512
188,191,510
194,209,500
188,202,581
192,204,530
189,205,524
187,232,501
191,243,469
188,233,470
193,236,459
190,236,478
185,232,471
190,240,446
187,235,445
196,242,417
197,252,407
201,249,419
205,263,474
206,252,452
215,243,425
223,241,422
228,248,403
239,267,373
239,256,401
254,286,385
264,282,362
272,277,359
286,302,344
294,291,325
317,295,321
333,288,449
352,283,465
423,303,459
447,287,418
458,273,423
458,265,430
481,265,444
507,254,460
520,237,432
548,300,426
561,296,402
563,281,407
572,316,390
559,347,431
557,392,417
556,477,413
564,498,388
550,515,450
554,549,436
559,600,436
573,677,405
580,616,403
601,573,424
620,543,411
636,553,483
650,524,488
661,480,516
674,445,577
684,427,527
683,445,585
688,439,563
698,460,603
709,472,606
725,523,592
743,536,597
755,601,693
766,603,691
781,646,730
786,695,769
791,692,687
790,741,633
766,707,645
767,713,577
761,777,529
743,792,501
704,772,620
695,814,605
687,784,587
659,748,832
636,775,812
615,709,782
588,652,861
115,329,177
116,347,186
111,347,189
109,345,218
105,340,218
104,330,223
104,330,252
99,319,256
99,310,268
98,304,283
96,290,297
98,283,315
94,267,334
92,253,347
89,249,359
89,244,372
88,234,380
86,226,375
85,223,380
81,215,378
79,212,382
80,212,388
76,204,384
76,205,378
72,202,380
70,204,406
70,204,403
68,193,369
67,195,365
64,189,345
65,189,342
63,200,336
59,194,330
61,198,349
59,187,340
59,190,323
57,182,328
57,181,325
57,184,334
56,182,341
58,179,347
59,178,349
66,171,330
70,171,339
76,164,340
87,167,318
93,162,303
114,166,292
127,164,281
145,161,294
163,157,330
181,157,324
212,154,296
234,174,281
256,177,277
279,179,318
298,169,308
328,191,310
344,209,300
370,204,284
394,214,293
409,209,295
437,224,292
454,227,279
462,220,268
467,234,311
458,285,329
456,306,325
437,326,390
417,318,389
394,351,378
390,351,376
385,339,358
372,324,369
377,341,348
376,348,373
382,386,359
384,353,348
393,322,429
404,311,399
421,324,374
425,324,406
437,300,410
457,293,452
480,303,428
500,320,424
519,310,402
549,282,442
576,298,421
588,316,383
75,215,347
78,216,331
75,221,323
75,220,310
74,216,312
72,233,307
72,233,321
69,242,332
69,240,317
69,247,305
70,241,317
70,257,307
67,272,296
73,266,281
76,274,291
76,286,288
82,273,285
82,288,265
92,284,273
92,280,289
103,279,275
107,270,280
108,269,282
116,254,260
125,246,266
124,233,276
131,232,308
133,214,331
145,246,304
157,244,289
158,229,282
167,237,288
178,238,319
199,257,314
212,276,304
220,287,296
229,294,302
229,283,307
243,313,341
263,302,321
276,291,347
295,280,367
302,279,369
319,316,354
329,312,325
331,293,341
341,284,368
331,266,394
336,279,448
341,277,431
350,288,489
384,323,470
371,324,461
358,345,496
333,367,483
312,378,478
295,461,521
288,489,520
282,471,521
263,470,557
278,494,589
289,537,544
301,509,486
313,500,455
326,460,424
343,455,428
374,447,486
401,456,474
412,429,479
441,441,447
468,417,442
491,391,422
499,362,423
514,339,453
526,331,478
525,335,539
525,338,550
531,327,746
600,342,761
643,341,878
664,381,820
696,363,722
716,458,789
736,534,970
767,504,971
792,458,970
805,431,970
814,479,872
814,496,791
818,482,808
56,188,282
56,178,264
56,180,290
58,179,281
60,175,295
57,178,286
61,169,298
64,167,321
70,165,306
69,170,303
71,170,291
69,165,255
69,168,269
71,203,270
69,200,266
69,201,296
68,190,281
65,187,273
64,212,274
66,201,266
72,209,269
78,220,322
78,225,356
79,218,340
80,218,350
82,221,344
85,213,370
87,219,394
87,206,406
84,206,389
90,217,407
87,269,410
85,251,442
84,235,421
81,245,421
81,259,425
85,247,398
90,245,422
91,245,414
95,261,411
100,273,437
113,258,427
128,287,455
154,312,453
171,302,458
194,298,465
219,286,486
227,292,553
245,335,564
251,385,594
252,374,620
245,368,570
233,349,555
231,336,512
209,350,491
196,359,465
187,372,440
172,395,467
159,436,447
143,470,465
135,501,486
128,489,473
121,514,442
113,527,493
114,525,535
113,602,528
111,574,583
122,561,646
126,580,603
123,549,641
144,567,718
147,516,744
163,524,838
182,524,781
209,602,697
225,554,674
256,558,666
278,496,818
312,468,737
346,499,653
365,470,728
393,429,744
414,482,724
421,465,687
422,550,637
423,537,581
427,512,555
430,535,577
420,565,591
412,583,567
66,291,606
68,350,632
66,354,630
66,343,658
63,344,674
62,342,640
60,327,645
60,323,670
59,348,634
61,327,667
57,344,624
57,332,614
57,315,593
53,309,575
56,307,563
54,316,540
53,308,541
53,346,564
55,348,529
55,344,506
58,324,483
55,319,475
58,317,510
58,354,481
56,380,473
64,404,440
66,401,427
70,408,433
76,441,422
76,429,443
87,471,441
96,456,435
102,462,403
112,506,389
114,482,400
126,487,410
138,465,387
144,462,370
156,476,357
158,460,372
171,489,351
181,468,320
190,457,319
198,445,346
199,456,351
216,461,330
227,491,334
232,497,329
248,532,320
249,545,307
261,592,325
273,634,312
281,644,291
287,693,316
284,718,337
293,752,314
301,799,342
308,812,318
320,841,323
317,869,327
318,899,356
318,907,369
316,897,377
315,898,368
293,889,386
273,900,438
247,962,461
223,969,453
196,957,445
181,970,547
162,973,548
152,969,488
149,943,525
155,968,504
147,931,516
141,921,488
136,830,511
126,805,530
118,740,590
114,655,586
115,587,577
108,586,636
105,544,619
105,506,618
107,496,577
108,478,573
102,514,644
99,491,625
101,495,650
99,469,636
61,413,601
64,408,636
62,399,622
59,389,588
63,385,655
59,375,687
61,343,672
59,362,726
61,353,761
59,359,723
57,332,718
60,338,711
59,334,731
59,331,691
58,332,675
60,322,687
65,306,675
64,313,703
72,308,659
75,313,639
85,295,648
96,293,599
101,277,581
118,255,545
125,244,536
134,232,544
152,219,492
164,220,456
178,221,432
196,229,441
219,223,424
242,221,398
256,250,367
280,253,340
291,273,387
312,283,414
336,291,420
351,309,387
365,292,369
362,315,362
364,312,377
357,312,385
343,325,432
323,335,448
287,336,525
257,352,575
233,331,647
226,322,639
211,320,607
202,353,600
197,354,620
183,356,602
176,386,570
159,370,673
151,388,717
142,397,717
135,386,657
135,408,639
128,421,684
129,471,689
117,501,667
108,567,656
101,610,615
100,671,672
91,702,648
89,676,715
91,734,744
87,837,800
82,900,858
83,924,838
80,919,765
82,938,812
79,947,903
74,913,901
75,850,830
82,828,815
79,852,780
81,882,759
75,854,719
73,850,742
80,838,701
97,781,695
131,737,680
150,758,709
154,707,624
174,733,641
188,702,747
216,698,733
202,620,768
200,565,777
501,293,421
517,277,421
520,270,439
520,249,450
531,241,449
530,230,508
547,230,481
549,243,473
557,266,466
563,284,477
563,302,507
575,332,487
578,361,493
590,408,493
596,438,491
600,473,488
611,500,473
619,487,471
623,506,452
639,487,409
652,485,412
678,466,381
689,446,350
710,436,345
728,414,356
740,393,357
767,376,355
785,353,370
811,331,383
831,312,385
840,288,403
856,268,383
867,250,382
879,253,386
892,261,393
892,262,418
903,287,397
895,314,391
887,713,410
882,794,402
873,786,424
886,810,438
885,783,474
880,725,507
870,648,541
853,581,601
848,583,617
837,652,643
834,681,661
834,729,686
829,820,738
840,886,764
846,963,755
841,957,750
837,951,747
847,915,743
855,921,737
866,844,790
880,922,753
892,881,728
892,886,693
890,823,634
878,918,609
892,910,536
896,866,506
899,890,497
911,815,493
932,803,448
941,749,459
942,753,433
940,709,455
934,699,512
929,663,536
916,697,548
910,714,551
895,711,626
898,701,613
893,675,564
883,615,602
882,799,585
860,838,851
844,765,802
819,751,826
800,854,968
767,815,970
737,821,972
722,967,936
694,969,937
678,971,894
637,949,970
55,199,313
56,200,306
58,199,291
61,197,278
52,191,271
59,199,255
58,197,245
56,202,226
59,212,214
58,214,209
55,224,205
57,228,199
56,247,202
56,261,200
55,276,207
55,289,209
57,288,239
55,296,239
58,305,241
55,309,279
61,338,259
64,345,248
69,354,263
76,382,252
81,389,266
92,425,282
96,467,282
94,488,298
105,490,287
108,508,277
114,536,268
117,556,282
126,580,285
132,619,286
137,612,333
152,616,389
159,638,354
172,659,355
188,633,342
195,621,340
206,621,340
213,626,325
220,610,302
238,587,320
289,593,370
276,590,357
314,598,416
311,604,416
294,613,389
266,646,383
239,639,458
213,642,472
194,659,484
180,708,490
166,783,481
152,762,441
153,743,413
151,766,449
152,763,493
163,813,486
163,775,536
169,744,507
167,733,459
170,723,496
165,687,474
166,626,429
168,638,456
150,560,440
147,514,450
138,460,446
132,463,598
152,425,581
144,622,557
131,652,634
135,581,760
138,541,755
139,527,813
146,514,924
168,507,971
188,471,969
201,510,931
191,520,970
218,521,904
219,505,839
222,498,952
210,557,963
233,669,969
246,688,906
243,681,968
243,626,971
95,238,168
94,244,168
98,229,159
96,224,176
99,232,189
102,236,199
103,244,199
108,232,207
116,234,207
123,228,201
128,221,199
133,230,191
141,220,187
139,216,173
146,215,170
146,212,163
145,201,163
153,220,161
155,225,159
168,209,161
175,210,162
176,202,155
190,194,152
194,183,160
210,184,162
230,177,187
237,183,210
260,177,222
275,171,216
299,178,216
322,180,212
347,183,216
384,187,215
409,195,220
445,219,240
477,223,255
504,217,282
539,237,330
568,242,339
603,247,373
640,262,392
670,266,395
706,279,406
738,285,438
773,299,462
806,302,483
826,304,471
847,316,511
864,307,506
877,305,505
882,308,526
877,309,523
881,328,536
869,351,567
844,357,558
824,377,615
809,427,632
794,425,630
784,415,627
781,416,631
789,399,642
799,415,610
807,387,610
834,377,634
848,361,633
857,358,596
860,343,599
876,352,603
876,348,598
882,350,629
888,357,702
904,324,732
906,304,648
896,312,680
892,317,640
898,363,617
895,336,620
902,369,632
905,379,699
914,406,691
919,431,762
944,407,829
970,442,779
970,443,813
969,434,740
969,465,675
969,576,635
969,535,671
970,577,598
969,532,591
403,356,396
403,346,376
393,357,374
397,364,447
403,372,435
397,389,410
407,389,409
416,391,398
431,369,407
449,400,402
451,430,411
471,449,460
486,469,450
504,481,439
516,502,456
524,524,461
543,506,448
561,525,486
579,531,482
597,527,462
607,548,443
623,532,423
639,537,443
656,534,470
678,523,470
686,543,480
713,538,497
727,541,518
749,534,544
766,518,560
770,525,594
785,513,608
790,511,675
805,506,664
817,518,668
814,528,699
820,531,709
811,536,702
805,529,702
791,528,698
769,501,654
751,494,629
721,512,608
690,512,583
661,512,564
628,530,552
598,524,517
557,530,561
517,523,538
468,517,525
421,510,523
374,537,503
329,538,495
293,517,493
267,513,469
257,548,498
240,552,488
214,529,447
190,517,447
172,467,459
154,461,461
141,439,431
131,452,445
131,426,462
126,402,442
117,417,411
107,420,412
113,435,393
108,424,464
107,444,482
102,437,486
104,482,496
101,495,565
98,509,499
92,529,518
91,515,549
95,519,695
94,567,718
87,594,763
99,652,743
104,694,771
114,643,829
120,609,753
112,574,689
109,508,789
122,510,849
129,542,835
131,507,832
139,511,829
155,509,969
67,257,213
65,262,261
64,246,275
64,236,256
66,246,238
66,238,223
69,234,215
68,215,215
75,223,207
72,214,205
75,207,211
80,218,218
78,206,221
79,200,217
79,193,219
79,187,227
77,198,233
76,226,248
72,222,251
71,220,243
67,224,260
66,232,274
66,245,313
65,225,298
65,222,289
63,213,268
65,211,252
62,200,253
63,229,268
63,230,275
60,222,262
60,238,255
59,249,248
59,242,243
60,242,271
61,245,318
65,231,339
62,222,311
59,254,295
62,261,277
61,268,276
59,260,322
58,247,285
58,246,299
59,239,280
58,238,275
55,244,256
59,253,281
57,237,269
59,231,251
63,234,245
64,256,248
65,254,231
62,273,219
61,260,212
60,294,197
59,272,188
57,281,177
57,276,170
57,267,175
59,304,182
64,290,191
63,268,186
67,271,220
73,253,216
79,279,217
93,258,213
94,240,204
106,234,240
113,225,236
116,233,233
112,230,232
106,216,236
101,251,240
96,256,255
89,257,261
87,270,247
82,313,258
83,364,242
77,372,249
73,342,239
71,336,262
70,340,257
71,351,275
80,371,290
84,377,276
83,353,286
82,329,309
82,296,288
77,305,302
338,180,150
322,176,153
300,171,161
285,177,156
274,183,152
274,186,164
264,189,154
257,208,160
256,203,164
243,211,178
245,221,203
236,228,197
233,226,203
226,228,200
223,224,194
221,264,206
210,260,204
201,273,239
181,273,244
168,272,243
154,267,232
141,257,234
136,251,246
127,248,287
116,245,301
108,234,320
101,251,305
97,253,291
96,237,271
96,233,295
90,230,290
97,248,312
103,245,305
110,272,300
114,276,315
120,270,321
135,268,328
137,313,364
152,307,366
158,291,406
164,281,397
168,301,413
167,292,443
180,307,464
179,310,471
168,345,519
164,334,518
151,329,548
145,343,548
140,347,537
134,401,539
130,405,564
118,389,561
116,433,529
130,475,524
166,489,530
206,498,544
259,534,494
292,558,471
311,568,444
318,560,439
341,517,445
370,481,402
394,450,378
416,410,401
456,447,381
493,423,370
527,402,362
547,476,376
576,461,399
607,457,364
633,419,374
657,405,442
682,437,424
698,415,421
707,425,415
712,380,388
709,362,379
712,332,359
713,300,377
704,370,390
698,444,384
698,452,422
689,416,446
669,383,539
669,487,530
659,462,591
652,455,641
641,541,631
629,672,668
101,206,219
107,209,211
106,229,205
117,219,211
120,214,233
129,220,248
139,223,230
140,244,217
153,239,215
156,247,212
169,239,209
178,249,198
180,269,206
192,257,202
201,271,200
213,259,188
224,259,185
229,248,185
244,234,193
249,229,216
255,226,225
259,225,231
257,216,227
261,217,208
256,236,215
249,237,224
237,230,221
220,222,214
212,212,230
198,211,225
185,210,222
174,204,227
162,190,226
160,223,245
158,219,232
160,207,224
157,201,232
150,191,231
161,211,252
162,210,264
184,275,259
201,303,250
209,312,236
219,318,268
235,335,269
253,335,257
263,324,251
258,352,284
267,336,266
266,351,262
285,329,280
302,319,295
314,362,297
313,363,318
332,360,351
341,353,340
354,352,369
375,328,374
404,336,364
441,357,403
450,450,377
462,439,396
466,448,380
481,418,422
486,409,484
498,402,483
517,377,528
526,375,657
526,393,668
523,449,626
520,476,637
519,475,614
498,463,607
494,430,671
491,408,631
476,372,737
467,495,716
446,590,825
462,552,852
469,501,832
455,491,931
457,479,937
460,459,895
453,457,970
449,635,907
446,661,898
447,708,899
449,729,840
446,719,858
443,668,803
125,275,129
132,285,127
129,278,121
135,280,122
134,280,116
133,272,124
139,285,117
131,284,120
138,298,121
139,295,119
137,302,128
150,304,127
144,289,135
139,311,134
132,319,135
126,327,132
124,328,131
115,318,137
111,306,136
108,320,137
101,331,143
95,326,139
88,340,135
84,347,144
79,340,169
77,327,178
73,339,178
71,318,177
66,314,174
67,292,181
68,284,191
65,267,190
73,253,196
73,254,202
74,237,198
84,229,192
87,222,186
99,213,199
109,201,211
123,191,214
135,189,257
140,186,256
165,218,245
173,216,245
180,213,232
183,208,235
176,212,234
175,222,218
170,231,204
165,270,200
161,293,202
151,307,191
160,329,193
169,361,201
188,395,205
209,418,220
218,397,231
230,389,264
251,432,255
275,391,234
320,374,222
364,383,213
402,351,202
426,318,217
447,314,207
453,293,220
460,293,225
460,323,222
470,303,212
478,291,202
476,285,215
478,292,230
493,285,241
508,294,236
530,323,258
551,303,273
573,327,303
614,380,314
613,454,344
624,497,367
643,460,420
669,434,438
670,504,417
658,499,423
665,613,497
675,734,508
674,713,543
664,625,525
659,607,505
654,565,488
76,288,264
76,284,262
77,272,256
79,277,277
79,271,275
84,270,310
84,261,305
90,264,294
95,281,274
93,261,257
97,252,261
98,246,266
104,237,258
104,230,281
102,225,290
108,219,278
109,227,271
114,224,284
118,247,317
114,255,354
116,243,368
111,245,456
116,230,495
116,226,511
112,221,515
112,227,496
112,265,512
114,307,567
120,305,550
131,290,537
139,277,503
142,296,491
144,288,472
158,276,468
163,276,471
173,291,478
182,286,500
203,296,508
218,279,497
225,292,483
250,275,490
260,277,542
269,254,567
291,245,570
296,238,592
311,233,629
325,239,618
334,237,564
336,229,554
334,224,616
346,221,658
351,205,649
355,200,632
351,241,701
340,254,771
341,244,779
326,265,774
298,257,756
275,236,711
258,224,730
229,263,700
207,266,827
183,281,849
172,278,873
155,365,879
162,359,969
151,373,971
143,505,970
146,568,970
144,590,970
132,580,971
125,591,971
128,553,972
117,532,969
107,569,970
100,579,971
93,578,971
91,608,969
92,711,969
99,718,971
94,758,970
91,686,971
89,700,971
89,711,964
86,694,970
91,652,971
95,647,971
92,649,970
87,676,971
82,694,971
127,141,246
124,138,239
127,137,230
124,137,229
120,132,232
118,133,235
114,132,240
117,134,242
112,131,246
115,136,242
117,152,250
110,156,277
117,176,255
116,179,242
120,185,230
127,197,218
125,199,214
133,236,203
134,249,206
137,255,224
139,271,216
131,292,214
134,316,203
128,338,210
132,358,210
138,360,235
137,377,220
144,376,208
143,370,232
142,386,223
146,380,216
143,371,271
143,405,319
143,394,337
139,386,303
146,389,313
140,373,335
142,372,310
137,359,294
135,355,279
135,332,270
131,311,252
132,300,266
127,288,266
130,277,269
133,282,265
135,323,258
146,303,248
153,299,252
160,288,257
166,276,255
168,260,267
179,265,273
189,311,296
195,310,279
195,307,285
200,315,301
203,321,306
198,314,345
183,301,312
168,288,347
150,287,338
138,304,336
140,282,342
145,267,336
160,260,346
177,255,375
202,255,376
212,263,346
226,297,345
233,299,341
248,307,390
244,340,356
246,313,366
253,312,348
270,327,326
287,314,381
297,306,368
311,303,372
328,301,353
333,286,351
341,366,389
352,343,377
362,320,414
363,293,431
367,321,450
373,319,577
387,304,659
384,294,782
377,323,775
57,140,225
57,138,232
59,135,238
56,135,240
56,134,233
59,141,218
60,138,223
65,134,217
64,129,229
65,134,238
65,138,231
66,134,234
65,136,233
65,140,234
68,157,224
72,153,215
68,156,229
69,166,228
64,182,243
66,176,235
61,177,241
64,173,233
66,180,221
62,176,214
61,174,206
59,174,213
60,168,210
58,173,201
57,166,197
60,164,201
66,162,196
67,158,207
78,157,204
80,154,194
86,163,199
95,163,202
99,155,188
117,151,174
126,154,171
139,153,164
148,160,154
166,154,152
166,169,160
172,194,158
180,191,158
183,203,172
177,203,174
177,215,170
170,228,166
166,225,152
160,234,157
142,240,153
132,280,149
121,270,142
113,252,142
107,242,140
105,229,156
98,221,153
95,206,163
90,200,186
89,219,188
85,233,176
82,222,173
78,229,189
74,224,215
73,214,203
71,242,216
68,238,226
71,232,234
66,239,266
66,259,257
63,260,249
61,257,247
60,248,236
60,262,219
52,270,242
57,289,291
54,276,310
63,303,283
64,308,305
64,319,286
70,316,293
67,339,339
64,348,311
62,359,303
62,380,298
62,395,336
65,374,344
69,379,343
67,405,371
142,191,221
137,190,212
138,190,200
133,197,212
136,189,231
141,192,216
143,198,213
150,193,224
146,201,217
153,193,209
155,199,232
157,195,225
169,202,212
168,211,224
172,202,232
178,209,247
184,217,236
196,212,259
194,213,246
201,205,251
203,210,248
202,208,236
210,205,239
209,215,270
215,209,291
224,235,284
220,239,279
231,231,265
230,242,254
241,232,244
250,225,235
253,217,293
262,207,292
264,199,281
274,211,296
281,211,333
288,213,319
300,213,306
310,210,291
334,196,274
352,208,293
369,215,308
387,209,301
396,204,311
373,203,329
377,204,353
366,216,375
475,222,409
511,233,446
587,229,452
626,226,460
631,223,450
634,213,443
650,208,516
669,217,523
676,218,521
688,252,553
695,301,593
683,298,525
664,292,554
654,285,504
634,286,468
631,301,502
623,293,465
619,288,432
606,295,406
606,323,373
613,303,390
631,320,424
654,319,403
660,303,404
668,298,563
692,288,564
710,271,710
716,287,784
748,284,797
820,295,825
873,319,766
917,355,758
955,363,769
969,390,780
970,389,747
970,450,687
969,441,664
970,392,697
969,380,631
970,345,617
970,422,625
970,398,571
969,430,583
82,132,133
80,135,130
78,131,126
74,130,124
70,127,120
71,144,121
67,145,114
66,143,113
65,137,116
64,139,113
63,138,111
62,140,113
62,134,116
64,139,117
67,136,118
66,142,113
68,150,119
68,155,117
69,159,153
72,164,196
69,157,202
66,155,200
66,155,217
65,173,202
62,183,244
62,182,259
61,183,263
63,180,253
65,180,244
64,177,252
64,174,241
64,177,245
63,174,275
66,194,339
65,202,374
63,190,351
63,195,328
62,189,320
63,195,333
66,186,324
66,185,283
69,181,281
67,178,304
69,172,295
69,167,303
67,166,304
67,163,334
67,160,363
65,161,347
67,155,339
68,178,332
66,178,308
66,172,304
61,173,306
64,168,299
65,172,289
64,169,309
65,171,302
70,189,293
79,202,275
84,201,266
100,199,253
111,203,257
118,205,246
120,232,255
127,228,262
144,235,246
150,241,237
152,239,218
150,234,215
140,229,237
134,236,255
125,253,254
116,265,254
112,262,243
103,250,236
98,245,251
93,255,243
86,275,262
88,278,278
84,277,284
83,256,287
78,263,303
79,266,287
75,255,332
75,290,324
76,330,351
74,374,402
130,362,468
132,367,655
61,231,348
59,235,342
62,233,342
63,235,338
64,235,329
66,230,328
69,234,320
69,224,317
73,225,318
75,222,314
77,223,314
85,238,306
84,233,309
87,228,304
88,232,296
86,231,294
89,234,285
89,226,288
88,227,289
88,228,288
88,226,289
90,231,287
84,224,297
84,229,293
81,230,293
77,229,286
79,228,278
73,216,269
73,218,256
68,214,243
68,211,231
63,202,218
61,208,207
62,203,197
61,195,184
58,193,180
57,191,175
57,184,173
55,176,165
54,174,163
54,177,161
53,184,154
52,177,164
55,176,156
53,183,159
56,174,155
59,175,151
58,172,160
63,170,167
66,171,163
68,171,163
75,167,157
73,162,166
77,175,163
75,185,158
75,190,161
73,186,160
69,210,148
73,222,163
76,238,162
77,262,162
84,275,157
81,306,159
88,292,172
90,301,163
92,299,158
90,277,158
82,263,166
79,244,178
76,232,199
81,246,195
77,239,192
83,236,182
86,240,180
90,256,170
94,259,176
92,273,175
93,282,188
89,290,185
88,290,180
89,302,172
86,326,165
88,366,164
86,403,157
87,410,158
95,396,154
99,475,151
108,503,149
115,531,208
122,484,256
84,143,362
85,142,354
86,142,360
84,148,363
80,153,373
77,147,352
73,146,349
71,143,371
72,139,356
69,138,359
70,142,361
68,143,354
69,142,345
69,143,349
70,143,349
70,140,349
71,143,334
70,145,335
74,140,328
75,138,319
86,136,349
92,152,355
100,157,333
115,158,333
119,156,338
134,174,321
139,179,323
153,178,311
168,179,310
176,192,309
199,203,292
218,195,280
234,199,294
249,198,283
260,202,293
284,210,295
300,203,319
323,244,302
347,240,332
367,235,308
393,271,288
405,269,290
421,269,292
437,274,299
449,277,319
478,286,289
498,281,284
513,281,269
527,281,265
534,280,256
549,312,255
556,300,248
554,287,236
550,288,235
536,275,222
537,301,209
528,338,225
520,319,213
525,302,228
499,316,272
506,312,285
502,298,299
500,280,364
495,269,368
500,269,371
478,285,405
450,289,463
424,310,565
412,349,496
389,402,476
359,436,451
328,460,419
306,435,417
276,471,406
262,499,416
243,500,391
232,466,386
222,509,383
200,541,344
180,575,330
169,568,373
156,575,398
142,575,371
129,585,356
126,579,334
122,560,334
128,580,320
133,589,357
136,589,399
151,693,371
161,208,377
154,211,378
153,200,389
156,191,436
168,179,427
165,170,399
183,180,397
173,180,387
181,182,373
190,174,351
182,173,330
214,187,328
203,181,323
196,201,306
193,206,321
195,203,297
196,198,285
205,187,300
216,186,306
210,179,314
223,175,317
228,194,304
242,190,349
257,200,346
271,200,315
292,188,317
306,183,296
326,199,263
341,193,251
340,185,247
352,183,245
357,185,241
364,177,279
372,175,291
372,173,291
367,172,317
353,176,301
343,169,296
331,213,331
303,230,342
291,225,329
263,215,380
242,231,358
222,236,331
202,244,360
193,244,378
187,259,360
179,287,623
171,291,698
168,299,675
168,314,667
169,368,651
158,445,671
148,460,603
138,469,558
129,536,525
121,557,548
125,528,569
132,593,537
147,609,522
152,691,526
184,680,484
212,650,515
241,609,545
256,695,527
297,684,530
324,767,511
355,785,569
387,825,621
429,767,593
454,758,644
498,862,698
519,879,662
543,867,638
548,906,705
543,813,704
535,830,728
545,774,778
565,842,762
568,968,814
569,955,741
567,943,755
564,897,832
556,856,909
548,865,883
550,784,858
544,911,837
531,948,826
516,955,781
500,946,834
349,264,377
348,252,371
354,249,355
345,243,334
357,249,335
367,253,321
358,237,317
352,238,303
351,239,295
350,228,285
367,247,270
370,237,274
372,235,263
387,231,262
391,225,263
396,229,256
396,224,250
404,234,239
419,247,235
426,232,239
431,231,228
442,220,244
454,224,242
461,234,237
462,238,260
472,239,246
469,224,272
472,229,265
479,234,255
477,242,283
487,247,273
487,239,280
490,251,294
492,249,278
486,242,263
491,243,247
485,233,248
488,238,238
484,246,258
477,242,248
478,237,239
469,232,232
464,233,226
455,227,222
439,224,244
432,219,240
413,211,242
404,200,244
388,193,235
368,185,229
359,196,232
337,192,243
309,181,229
281,184,257
253,180,276
223,199,264
197,182,255
174,195,258
155,198,270
138,201,334
126,200,352
113,196,342
106,184,348
97,182,366
90,195,366
87,202,365
90,198,431
94,200,439
105,220,433
113,246,477
119,274,472
143,329,469
171,343,479
193,340,514
218,334,545
234,424,548
254,449,625
269,417,644
278,445,671
278,523,628
290,552,650
306,532,633
319,601,602
333,700,707
355,704,764
369,725,971
387,769,969
399,909,968
423,967,970
447,970,971
74,228,432
68,252,431
67,236,455
64,228,482
67,214,461
62,210,441
65,230,436
60,246,436
59,227,450
60,241,426
58,242,453
59,252,447
56,285,471
54,272,492
54,263,543
52,275,520
53,264,532
54,271,555
53,273,572
53,294,614
56,299,642
54,290,627
50,287,623
54,290,631
57,281,622
56,278,595
58,328,563
55,317,547
56,305,533
56,315,505
54,298,522
54,281,477
53,267,440
51,289,404
52,271,380
51,269,356
50,294,344
50,279,325
50,280,304
51,284,296
51,266,328
50,260,303
49,251,302
49,258,355
51,300,370
50,299,416
50,321,401
54,330,429
52,306,449
51,302,480
49,299,540
51,306,509
51,306,566
49,305,573
51,330,574
48,337,646
50,323,648
51,321,609
55,310,664
60,304,647
62,328,647
73,319,644
77,299,625
91,290,648
109,310,607
118,290,584
140,290,580
149,278,578
169,273,535
188,268,530
194,279,558
221,261,518
236,323,520
256,320,487
272,306,478
291,286,453
323,294,420
339,311,434
363,303,414
380,296,455
393,341,411
389,319,393
384,303,367
365,314,375
340,303,403
308,296,382
279,334,402
249,304,425
221,290,427
193,269,388
503,239,317
493,227,301
494,228,317
484,252,309
473,239,309
473,224,357
463,211,384
457,204,412
438,191,391
417,188,391
404,192,410
379,192,392
366,195,428
343,187,447
321,185,439
309,181,457
293,202,457
284,195,445
274,201,446
280,190,470
295,181,457
306,180,423
328,189,408
351,186,407
378,177,391
406,172,386
426,176,379
461,186,392
482,182,444
513,185,467
546,204,480
572,229,464
601,245,460
627,245,432
651,252,403
668,260,415
673,255,461
672,252,464
670,250,446
672,307,462
687,360,430
694,374,422
698,348,407
697,357,395
695,358,380
695,353,427
683,338,470
676,350,444
659,357,439
644,410,414
640,502,441
616,510,505
593,522,480
565,495,504
536,469,532
512,446,510
490,442,623
472,449,710
453,512,693
410,509,649
369,531,711
326,476,704
286,469,667
254,502,689
227,695,630
200,811,798
182,743,907
163,704,970
148,671,971
133,630,971
120,617,972
114,661,970
118,650,915
127,629,954
141,662,892
167,682,817
180,736,850
196,800,825
207,772,970
238,794,969
268,768,916
295,845,837
322,839,774
349,803,746
372,762,713
404,801,686
442,758,632
476,807,614
516,746,564
532,696,536
141,342,253
139,371,264
134,403,281
127,436,270
127,457,253
119,475,298
115,540,289
120,514,258
111,508,259
108,504,278
101,513,273
100,514,302
101,505,316
104,517,320
111,513,322
114,476,340
123,467,354
130,468,345
133,483,366
142,460,368
141,424,386
139,417,384
135,404,386
127,420,418
122,426,403
113,413,388
105,405,376
102,381,360
119,365,353
132,358,349
161,337,350
187,345,349
219,322,326
260,301,323
281,278,317
297,266,303
306,254,279
325,288,264
354,322,254
362,321,241
394,321,245
411,310,241
455,303,262
480,301,277
534,320,284
581,322,289
614,321,326
650,324,323
691,326,355
712,333,342
739,377,346
765,371,419
777,451,447
775,533,512
769,590,494
766,583,464
767,602,470
739,589,481
717,578,448
695,531,431
682,568,445
690,585,487
687,588,473
680,579,470
687,585,541
691,566,608
702,553,659
710,561,683
716,630,687
749,619,746
747,619,887
711,669,969
698,621,971
687,592,966
705,653,966
720,950,970
728,970,949
748,959,970
754,855,971
756,848,969
777,849,971
785,916,965
817,914,921
831,933,870
854,967,898
870,961,845
893,968,779
906,968,879
899,970,834
875,972,860
320,178,189
327,180,178
341,180,213
344,179,205
348,189,205
352,200,219
347,214,210
351,215,224
349,218,226
344,218,210
342,236,221
336,246,204
342,258,196
342,285,199
344,297,202
338,298,197
332,318,197
315,325,199
306,332,202
307,336,211
307,356,199
301,388,204
305,376,201
300,360,198
297,356,200
293,362,207
278,344,234
286,349,229
303,360,269
287,370,283
267,403,343
255,456,381
251,445,392
228,443,429
206,440,429
191,459,438
180,473,484
172,492,469
181,509,477
224,563,526
239,545,548
270,535,524
304,522,556
332,552,553
357,501,548
387,468,585
424,426,574
459,394,577
495,388,538
510,361,526
510,351,564
512,321,525
509,327,534
500,341,511
468,379,490
440,347,509
408,346,501
373,359,634
338,347,657
308,341,680
278,334,641
256,315,720
225,325,747
200,349,779
185,432,935
186,437,871
186,409,820
175,532,800
169,551,737
152,542,854
141,556,875
132,553,788
121,634,881
119,677,903
131,675,831
139,772,803
145,858,752
155,802,884
172,826,936
194,778,971
207,970,971
194,967,970
190,971,981
176,967,971
159,970,930
149,970,887
139,929,902
125,972,867
113,973,791
108,971,803
917,242,249
902,252,254
890,240,245
870,263,240
869,249,243
853,258,241
847,321,244
851,309,230
829,295,225
797,286,230
753,287,245
704,299,251
659,296,232
611,304,217
570,317,215
521,310,214
481,299,231
454,280,222
423,272,233
404,264,248
383,258,281
365,251,300
346,244,284
322,228,273
302,215,276
281,210,256
268,206,265
266,202,252
253,238,256
255,252,239
254,266,234
249,280,208
243,293,200
222,308,194
204,323,226
183,350,237
170,372,246
155,395,234
146,386,259
146,369,247
159,383,238
177,364,247
172,348,235
170,345,241
161,330,245
164,335,241
171,327,241
161,353,259
150,344,263
141,319,254
129,302,252
123,282,257
113,273,254
104,272,244
110,259,238
117,237,276
124,234,283
132,240,289
150,234,305
172,224,362
198,228,348
234,242,336
264,305,507
304,298,525
341,334,763
392,316,695
452,304,703
520,299,676
580,337,632
641,447,730
720,586,719
797,581,653
870,554,596
946,526,659
969,476,643
969,482,625
970,556,602
970,739,545
970,733,542
969,735,516
969,664,496
970,620,456
969,596,489
969,613,528
970,731,505
969,778,480
970,722,478
969,655,550
970,610,542
970,587,521
94,156,204
89,188,199
85,201,192
81,189,205
77,182,212
73,175,203
70,175,232
73,174,240
74,172,228
80,171,216
79,167,208
79,171,210
79,188,205
77,182,194
81,184,193
79,177,208
76,175,208
83,182,211
80,173,211
83,179,201
88,177,197
93,181,196
110,199,204
123,193,211
144,222,225
165,233,241
182,237,248
211,296,272
223,322,265
235,368,276
238,358,297
242,401,313
254,420,327
255,445,322
271,475,318
282,464,313
298,485,328
322,493,317
342,460,308
359,446,345
375,472,331
395,488,308
417,523,309
424,503,294
439,542,325
459,556,354
454,584,333
458,582,315
449,586,308
453,605,307
456,614,389
448,626,387
454,682,438
448,673,445
439,693,439
425,734,634
406,678,708
392,681,717
369,754,721
353,788,732
335,777,774
308,752,728
281,762,734
266,864,801
262,789,767
249,833,788
241,800,850
223,722,795
207,696,921
190,661,885
169,655,844
163,685,963
143,691,932
140,718,970
137,696,960
123,936,886
113,971,935
107,969,970
101,968,961
96,968,971
91,884,950
85,806,901
87,781,892
81,964,902
78,969,845
77,942,820
75,970,869
76,968,889
75,905,885
72,811,815
126,211,198
132,205,209
127,209,200
130,198,207
123,201,210
116,193,197
114,195,192
105,194,181
107,178,194
105,178,196
128,170,206
130,167,226
132,161,218
100,159,218
87,159,228
85,155,227
86,157,217
82,168,204
81,163,205
85,168,205
88,163,201
89,166,206
82,168,225
81,169,230
78,177,213
77,169,217
77,165,214
72,165,202
69,158,202
67,159,193
66,154,178
62,156,171
65,159,171
64,156,179
66,158,179
72,160,181
81,161,184
100,172,191
112,175,197
125,185,211
142,180,201
148,200,202
157,228,212
151,235,217
151,240,203
163,256,230
177,275,221
210,280,217
229,301,234
254,321,218
276,359,216
288,401,204
306,441,237
303,445,254
307,507,277
315,538,269
312,585,247
317,546,232
313,622,237
319,625,250
321,710,262
323,748,289
320,761,321
319,776,323
306,784,319
286,780,303
267,770,314
250,758,366
233,794,358
211,808,334
189,772,341
177,720,348
164,720,327
154,675,349
148,650,414
130,625,490
119,623,483
110,589,546
106,537,613
103,662,635
104,713,744
108,758,679
118,740,720
129,699,687
146,662,685
154,606,729
161,562,719
171,521,753
170,642,742
166,604,726
268,168,251
259,180,264
258,180,248
256,188,245
257,198,237
262,194,231
254,195,237
245,190,227
219,188,214
212,194,231
215,199,223
212,214,220
214,214,231
209,223,223
204,224,239
197,229,253
190,235,259
190,247,245
186,260,242
185,262,243
181,265,246
171,267,244
167,251,251
155,247,272
145,244,264
142,237,282
126,231,263
117,223,268
109,210,278
108,207,271
113,201,281
139,214,292
164,208,290
202,212,301
243,217,319
281,206,304
327,207,298
369,212,298
416,213,313
451,225,302
479,218,319
504,254,332
513,249,328
527,258,319
538,254,337
539,260,315
534,258,326
512,242,319
498,246,300
475,262,310
451,275,304
429,307,311
403,306,313
377,303,341
349,302,317
324,309,294
291,302,285
261,303,277
235,319,289
210,365,299
186,337,283
165,308,291
150,311,278
137,320,259
128,315,241
121,306,288
118,306,305
113,322,307
111,381,304
107,372,291
110,364,265
110,331,267
115,397,281
126,392,310
126,368,422
132,412,418
147,458,404
169,425,446
189,414,516
198,457,551
212,521,532
230,493,552
244,580,578
242,596,599
255,560,594
266,586,693
274,667,746
275,666,776
281,794,717
288,763,668
971,311,208
969,298,203
969,286,206
970,277,226
970,267,223
969,265,222
970,254,206
969,253,195
966,238,194
967,224,200
960,216,219
961,206,217
961,198,229
955,190,224
955,186,212
950,174,227
943,175,250
933,184,236
915,197,237
902,195,257
879,219,259
871,218,261
867,232,266
856,249,259
853,246,241
839,237,235
830,253,282
821,262,287
817,264,266
819,261,250
807,255,255
807,243,267
803,222,270
795,214,269
790,207,268
778,194,278
796,188,290
786,184,332
769,181,353
739,192,359
724,189,388
718,192,380
704,186,376
682,177,389
659,174,402
624,168,396
603,168,419
577,189,442
544,182,461
518,188,425
483,184,404
447,196,449
444,201,422
396,198,455
349,196,494
304,238,455
274,241,443
260,233,469
269,231,474
284,258,506
303,263,557
336,260,523
370,268,521
403,266,512
440,272,489
481,264,475
516,255,455
541,262,439
564,262,493
585,291,462
615,332,448
634,340,466
658,377,506
685,359,503
717,345,473
727,357,563
742,386,582
760,396,555
795,391,525
801,385,551
812,361,600
828,350,589
856,380,612
852,495,578
846,493,621
838,479,583
845,435,732
819,442,811
806,426,821
788,475,868
411,318,171
407,308,169
403,287,176
399,282,169
401,267,167
392,261,155
389,252,153
397,257,154
393,245,150
399,231,158
396,224,172
404,225,186
409,220,202
413,224,215
416,218,225
414,239,232
415,227,238
427,215,248
417,213,247
420,207,252
411,206,254
406,210,261
401,200,271
391,203,272
396,207,279
400,197,280
405,196,275
416,192,283
416,187,270
426,179,282
426,178,267
428,177,258
434,173,266
434,195,272
448,196,270
457,200,278
452,198,280
448,197,281
434,202,324
432,204,348
424,217,327
422,231,336
431,236,337
427,243,344
430,251,345
433,264,361
429,273,343
439,276,361
441,287,366
449,290,367
454,280,377
456,271,377
458,282,374
460,279,394
448,303,376
421,301,369
426,294,348
446,271,367
440,291,433
421,277,463
402,268,422
384,269,385
360,261,351
334,288,335
306,274,356
269,275,322
234,256,297
207,247,304
185,243,335
172,230,365
162,241,346
161,261,353
155,315,389
165,284,437
191,289,419
207,314,430
224,329,423
249,317,424
271,322,396
277,374,379
286,363,424
303,326,400
312,317,435
320,373,422
339,386,465
363,366,545
402,360,651
407,344,815
424,332,781
413,325,748
72,289,182
72,295,192
67,283,188
68,263,186
70,249,201
68,233,228
68,230,232
64,221,248
63,222,237
63,225,228
62,229,258
68,223,265
68,217,253
68,215,263
63,222,273
64,219,287
60,230,279
62,224,287
59,234,285
62,233,265
70,225,273
73,242,264
89,238,271
101,249,266
110,248,263
132,250,242
140,271,230
149,258,215
156,274,244
166,287,255
184,280,260
195,276,263
217,266,267
233,270,250
252,272,244
280,296,247
299,312,238
320,333,223
339,329,213
358,329,208
384,307,242
395,340,254
411,330,286
404,325,262
399,310,267
410,290,268
412,284,255
426,281,272
442,263,300
459,253,302
479,256,327
498,249,307
514,251,309
528,235,310
535,255,318
558,290,316
564,293,294
578,292,286
589,315,270
608,319,269
629,354,300
646,351,349
656,372,313
662,397,281
664,395,297
641,396,332
613,464,334
579,478,334
554,514,427
525,487,466
495,524,506
473,515,573
434,502,608
383,500,668
340,452,726
304,492,715
269,549,746
233,508,730
206,471,766
183,491,753
167,475,744
156,428,718
147,408,735
140,562,716
139,590,759
147,561,817
162,541,805
170,507,772
186,457,770
201,470,802
106,218,462
111,228,455
121,213,440
133,201,462
157,197,459
178,193,448
199,189,449
219,192,477
250,197,491
291,198,480
320,193,476
365,193,450
402,189,451
435,184,466
470,192,452
493,206,462
519,204,433
533,219,456
545,239,452
562,244,443
563,243,463
572,232,446
569,215,461
563,219,477
556,230,468
538,228,478
532,238,479
526,227,469
521,219,486
523,218,484
515,237,464
524,261,491
525,243,502
531,255,499
545,282,491
539,298,525
533,318,514
517,340,510
510,351,538
511,384,513
505,401,487
510,434,475
507,404,490
512,467,501
518,527,496
515,542,472
521,619,444
525,633,428
532,659,420
543,643,452
544,632,428
544,632,417
550,660,428
539,611,457
529,587,420
525,554,460
521,581,445
505,558,474
476,507,555
449,485,637
416,492,728
365,512,687
333,647,753
314,774,758
304,762,681
297,861,740
281,832,679
278,750,676
280,706,700
260,685,656
251,789,738
245,796,826
235,780,846
221,767,791
200,761,891
188,767,880
179,721,859
164,711,917
158,797,929
147,869,971
132,942,848
120,968,844
109,939,933
101,965,870
97,926,865
97,970,870
95,970,907
90,970,894
93,970,881
88,968,873
114,150,193
121,157,211
110,163,213
107,163,207
112,158,214
112,181,232
102,184,245
107,197,275
97,209,280
96,209,282
99,226,294
105,230,280
94,246,291
98,250,294
103,255,291
100,262,306
103,270,291
102,275,271
108,267,253
120,258,240
118,238,228
125,230,221
133,219,211
145,223,200
166,225,204
175,219,221
191,210,222
205,200,244
225,194,261
259,188,279
287,208,337
322,209,333
353,217,311
395,217,342
437,218,354
453,213,356
486,207,350
520,216,342
550,211,327
587,214,308
608,204,311
637,210,302
657,204,282
688,232,288
717,268,275
729,260,277
745,256,257
760,243,286
777,283,305
792,301,287
785,306,265
780,307,253
774,313,240
774,311,226
773,319,216
767,352,222
729,376,211
693,378,243
669,353,242
653,409,235
638,434,232
629,466,225
620,492,220
599,496,248
572,493,254
560,566,250
530,559,268
508,621,262
476,653,248
441,669,226
408,671,219
380,694,236
355,634,254
339,606,273
319,628,308
296,629,315
260,625,301
230,669,301
200,655,326
180,656,349
160,625,342
145,594,355
130,608,371
119,595,357
113,577,406
114,550,380
118,486,373
125,442,370
137,446,357
140,507,360