v1,v2,v3
28,113,54
29,113,55
29,118,54
28,114,55
27,123,54
28,116,52
28,110,54
28,112,55
29,106,51
28,112,52
27,108,53
29,111,54
28,113,53
28,107,52
26,110,51
27,105,52
28,102,51
29,105,51
28,99,52
28,100,51
27,97,51
27,99,51
29,97,50
28,95,51
27,100,48
28,95,50
28,91,49
28,95,49
28,92,50
28,93,49
27,93,49
29,89,49
29,94,49
26,90,47
28,91,48
28,90,48
28,103,49
27,104,48
28,98,48
28,106,47
27,106,47
26,105,47
28,111,47
28,110,48
26,111,48
28,108,48
28,111,47
28,113,47
28,108,47
28,112,48
28,106,49
27,106,47
28,110,47
28,102,47
27,104,46
28,102,47
28,109,48
27,117,47
28,114,47
28,117,47
29,125,46
28,127,47
28,132,48
26,136,48
28,141,48
28,137,48
27,139,47
27,144,47
29,142,47
27,145,48
27,146,47
27,158,47
27,161,46
29,157,47
28,157,47
28,152,47
27,153,46
28,151,48
28,153,48
27,152,48
27,144,47
28,142,46
27,147,47
28,144,46
29,149,47
27,146,47
27,142,46
28,148,47
28,148,47
27,152,47
28,51,54
27,49,55
28,51,53
27,50,53
28,50,53
27,58,53
28,52,52
29,56,53
28,52,53
27,53,53
27,57,51
29,54,53
27,56,50
26,52,52
27,52,51
28,53,52
27,52,50
26,54,50
28,53,50
27,55,49
28,54,51
27,51,50
27,52,49
27,51,48
27,51,48
27,49,49
26,50,48
27,52,48
27,50,48
27,51,47
27,50,49
27,49,48
26,53,46
28,51,47
27,54,48
28,53,47
26,51,47
27,50,48
27,51,47
27,50,47
28,50,47
27,52,47
28,53,46
27,51,46
27,51,47
27,53,46
28,52,48
26,56,47
28,55,47
28,53,46
26,54,47
27,55,46
27,51,47
26,53,46
27,55,46
27,57,46
27,52,47
27,55,47
27,58,46
27,56,47
27,59,45
27,54,46
26,59,45
27,56,47
26,58,46
27,56,47
28,53,47
28,58,47
28,54,45
27,53,46
27,52,47
27,50,46
27,53,47
28,49,46
27,50,46
26,52,46
27,49,47
27,49,44
28,49,47
27,45,46
27,51,45
26,51,47
26,47,46
26,50,46
28,47,45
27,50,46
27,51,47
27,49,46
26,52,45
27,49,45
29,111,54
29,105,54
30,109,53
28,106,54
28,116,53
29,119,52
28,126,54
29,126,53
29,126,52
27,119,52
28,116,51
29,115,52
29,123,51
30,117,52
28,119,49
30,112,37
28,106,53
29,107,51
29,110,51
28,105,48
27,106,50
27,102,51
28,99,49
29,99,50
28,99,47
28,100,49
29,109,48
28,107,47
28,103,47
27,106,46
27,106,48
27,102,47
30,102,49
29,106,45
28,113,44
28,116,46
28,109,45
30,110,46
28,108,47
28,106,46
29,103,47
29,109,45
29,106,45
28,109,48
30,106,46
29,112,45
29,105,48
28,105,45
29,102,46
29,95,45
29,94,47
29,103,45
27,99,47
28,99,48
29,99,49
27,98,49
30,96,48
29,99,49
30,100,48
28,103,51
28,103,50
29,112,51
29,107,51
28,109,50
29,111,52
27,114,52
28,111,51
28,110,49
29,109,53
28,104,53
28,109,52
28,111,52
27,112,52
28,110,50
29,107,54
27,113,53
28,113,53
27,109,52
28,107,52
28,113,54
29,110,53
29,110,52
27,116,53
27,121,53
30,121,52
29,116,52
28,119,52
27,122,51
28,124,52
28,123,50
30,274,54
31,288,55
28,272,55
29,286,56
30,300,54
29,284,55
30,282,54
29,277,55
29,265,53
29,257,53
30,243,53
29,240,54
28,234,53
28,219,43
30,220,52
28,207,52
29,208,52
29,205,51
30,193,52
26,191,51
28,184,50
29,184,49
28,181,51
28,185,51
28,188,49
29,180,50
30,199,49
29,190,49
30,188,50
29,192,48
30,183,48
29,193,48
30,188,49
29,195,48
29,195,47
29,185,49
31,236,47
32,350,48
34,449,48
36,481,47
36,490,47
36,475,47
34,439,47
34,417,46
34,437,47
34,420,48
33,415,46
33,399,46
31,375,48
32,357,46
32,328,47
31,318,47
31,304,46
30,285,47
30,282,47
30,262,47
30,264,46
30,253,46
30,260,47
29,260,46
29,243,46
29,245,46
29,238,47
28,232,46
29,236,46
29,219,47
29,230,46
30,221,46
29,217,47
29,229,46
28,214,46
30,218,46
30,214,46
30,216,45
29,215,47
28,204,45
30,204,46
28,205,47
28,199,48
29,204,48
29,194,47
29,199,47
29,201,49
29,198,49
28,207,50
30,202,50
29,211,51
28,205,50
28,206,51
29,238,51
27,126,53
28,111,54
28,117,53
29,121,53
29,111,54
30,110,54
30,107,54
29,107,53
28,115,53
29,112,53
27,117,52
28,112,52
29,108,52
28,105,51
28,107,51
28,104,50
27,102,51
28,102,51
29,101,51
27,103,51
28,101,50
27,101,49
30,99,49
29,102,50
29,94,49
29,97,49
28,107,50
27,103,47
29,107,49
29,101,49
27,103,48
28,97,47
28,98,46
27,101,46
28,98,47
29,101,48
28,96,48
28,98,43
29,95,47
27,92,47
28,96,47
29,93,46
27,97,45
27,102,45
29,93,47
29,93,45
28,91,47
27,97,47
27,101,47
29,97,48
27,98,47
28,93,48
29,91,49
28,97,49
28,100,49
27,102,50
28,103,50
29,101,50
27,101,49
28,103,50
27,105,52
27,98,52
29,102,54
29,104,51
28,104,51
28,107,52
28,105,53
27,107,51
29,105,52
26,108,53
29,106,54
29,107,54
28,114,52
26,119,53
27,112,54
29,115,54
28,123,52
29,118,54
27,120,53
29,116,53
27,114,53
29,119,53
27,118,53
28,114,54
28,120,55
27,120,54
28,120,53
29,122,53
29,128,53
27,117,52
30,225,61
32,233,62
32,226,60
31,243,61
31,230,60
31,223,59
31,214,60
32,200,61
31,202,59
32,186,60
31,182,58
30,176,58
31,178,57
30,169,57
30,159,58
31,158,56
30,154,57
30,148,57
30,169,56
31,158,56
31,154,56
30,154,54
31,146,55
31,148,54
30,148,53
31,143,52
31,146,53
29,148,54
31,147,52
32,141,54
30,143,53
30,145,51
30,136,52
32,147,52
31,141,52
31,139,52
31,150,50
30,146,51
30,145,49
32,148,50
32,145,50
30,145,51
31,139,51
30,152,49
30,181,48
32,178,48
30,178,48
30,165,48
31,164,50
30,174,48
30,191,48
32,227,48
33,226,48
32,223,47
33,223,49
32,214,48
31,209,48
31,204,46
31,199,49
32,187,48
30,187,48
32,181,48
32,175,48
31,202,47
30,188,47
32,187,47
30,189,47
32,175,48
31,179,49
30,184,45
30,182,46
31,178,47
32,191,48
31,192,47
31,203,47
30,210,47
30,208,47
31,193,47
31,192,48
31,190,47
31,196,47
31,194,53
31,205,46
32,214,45
30,207,47
32,209,46
31,229,48
36,219,48
31,221,46
31,222,46
32,144,59
30,140,59
29,137,60
31,134,60
30,131,61
30,134,59
30,131,61
29,133,60
30,130,59
30,129,60
29,127,58
31,124,58
31,125,57
30,121,58
30,122,56
28,121,56
29,116,56
30,118,55
29,113,56
30,119,54
30,121,53
30,114,54
30,116,54
31,117,54
30,115,54
30,116,52
30,114,52
30,116,54
31,114,51
29,112,53
30,109,52
31,103,54
31,110,51
29,108,51
31,107,50
30,110,51
29,108,50
30,106,51
29,105,50
31,108,50
29,110,49
29,105,50
32,108,49
28,108,47
30,107,49
30,107,51
31,108,49
31,114,49
29,116,47
31,114,49
31,124,49
29,129,48
29,127,48
31,121,48
29,126,50
30,117,48
30,120,48
31,121,49
30,115,47
30,114,47
29,109,46
30,116,49
30,115,47
29,116,48
29,116,49
30,118,50
28,122,50
31,121,47
30,118,47
30,123,48
30,125,49
30,121,46
31,128,48
30,122,47
30,129,47
31,123,49
29,121,47
29,122,46
30,118,48
31,119,48
29,118,47
29,125,46
30,127,48
31,124,48
30,134,48
29,130,47
31,130,48
31,135,48
29,136,47
31,140,47
31,102,55
29,101,54
30,96,54
30,103,55
29,102,56
30,97,57
30,93,57
30,100,55
31,100,58
30,100,56
30,99,58
29,102,57
30,103,57
31,99,57
31,98,58
30,96,57
30,95,55
30,97,55
29,98,57
30,96,56
28,94,55
29,100,54
29,102,55
30,101,55
30,103,54
31,98,56
30,105,55
31,108,55
28,113,56
29,107,54
31,103,54
31,107,53
29,111,56
29,118,55
29,120,53
30,123,53
32,125,52
28,127,52
31,124,53
29,119,52
24,116,52
30,119,54
28,120,52
29,119,52
31,117,52
30,122,52
31,120,51
29,117,52
30,122,50
31,121,52
29,118,50
29,121,50
29,127,51
30,120,50
29,118,49
29,119,49
29,117,51
30,118,51
29,122,50
29,117,49
29,116,49
31,123,50
30,119,51
29,122,50
30,120,50
30,118,49
31,115,48
30,115,50
30,113,49
30,115,49
29,112,48
28,109,48
30,113,48
30,107,50
30,112,49
28,110,50
29,112,47
30,109,50
30,111,49
28,113,45
30,118,48
30,117,50
30,114,48
30,121,47
29,129,47
30,119,48
29,125,48
28,129,49
31,130,48
27,130,47
32,110,55
30,105,51
31,106,53
31,100,53
29,101,55
30,97,54
29,105,54
30,99,52
30,96,52
29,101,53
27,100,52
28,96,52
31,101,52
30,97,50
30,96,51
30,95,51
30,97,51
30,99,51
31,93,49
30,99,50
31,102,49
30,97,49
30,105,49
30,99,49
29,102,48
29,104,48
30,100,48
29,103,49
28,101,48
30,99,47
30,93,50
30,98,46
29,94,47
28,109,46
29,110,46
30,106,46
31,107,47
29,108,45
29,116,46
29,124,46
30,125,45
30,128,46
29,132,46
28,135,46
28,139,46
28,137,49
30,141,50
30,146,49
29,141,50
31,141,51
31,139,50
30,147,52
29,152,51
29,159,51
29,157,53
27,156,51
29,157,52
28,157,52
29,151,54
31,151,53
30,151,52
29,155,53
29,149,54
28,156,54
30,149,55
30,148,52
29,146,55
29,145,54
30,149,55
30,149,53
28,146,55
30,146,58
30,145,55
28,147,56
29,146,54
30,146,55
28,152,53
29,153,54
28,152,55
29,152,53
29,156,53
28,157,53
29,155,53
28,161,53
29,161,54
29,154,54
29,155,54
27,159,51
31,159,53
29,157,53
31,107,53
31,115,52
32,106,52
30,111,53
30,117,53
32,104,55
31,107,53
30,104,53
31,102,54
30,104,51
31,97,52
30,109,52
29,103,51
29,103,51
30,99,50
31,100,51
29,103,50
31,97,49
30,91,45
32,92,51
30,90,48
30,97,47
30,93,48
31,93,49
30,97,47
30,96,47
29,93,47
31,91,47
31,95,47
31,95,48
31,88,46
31,92,46
31,93,48
32,89,47
30,90,48
30,84,47
30,97,46
31,91,48
32,93,46
31,102,48
32,98,48
32,103,49
30,100,47
31,95,50
30,99,51
30,103,51
30,107,52
31,103,50
30,112,52
30,113,53
30,113,52
32,112,51
31,107,53
30,107,54
30,103,53
29,102,53
30,103,53
30,102,53
31,101,54
31,100,55
31,100,54
31,106,54
30,105,54
31,108,55
31,111,56
31,112,55
30,110,54
29,103,55
30,112,56
31,111,56
31,114,55
32,115,55
30,117,55
29,116,54
31,114,55
30,114,55
30,123,55
32,119,56
32,130,55
31,123,54
30,130,53
30,135,52
31,132,54
31,132,55
30,132,54
31,134,55
31,136,53
30,137,51
29,140,52
32,138,53
28,109,58
27,109,60
29,113,59
28,113,60
28,113,61
27,107,62
27,111,60
30,105,61
28,101,62
27,104,61
28,99,62
29,102,61
28,93,62
27,97,60
26,101,61
28,94,59
26,97,60
28,96,59
28,95,60
29,96,58
27,100,58
28,101,57
28,100,59
28,97,58
28,100,58
29,98,56
29,98,57
28,97,57
28,105,57
28,104,54
27,105,56
28,109,55
29,107,56
27,107,55
29,106,56
29,98,56
28,100,54
27,98,53
27,96,54
28,94,55
27,98,55
27,97,56
28,92,55
27,97,52
28,93,54
28,95,54
29,101,54
28,101,53
27,99,54
29,107,54
28,101,54
28,102,53
27,98,52
27,99,52
29,101,53
28,94,52
28,96,52
28,100,51
27,98,52
28,94,53
28,100,53
27,102,51
28,105,52
28,100,51
28,100,52
27,103,50
28,107,49
27,107,51
27,123,49
27,123,51
28,129,49
28,121,48
28,120,50
28,113,49
28,118,49
28,119,49
27,115,50
28,119,50
26,124,49
26,120,49
27,126,48
27,123,50
27,130,47
29,121,49
26,127,49
29,125,48
27,126,49
28,131,50
27,130,48
30,130,54
28,106,60
27,112,63
27,107,61
28,108,62
29,110,69
28,110,61
27,112,62
28,110,61
29,109,61
27,96,60
28,96,60
26,97,60
28,90,60
28,90,59
28,90,59
26,84,57
28,95,58
28,89,58
29,86,58
29,86,57
26,86,57
28,85,57
27,82,57
27,80,56
26,85,55
27,84,56
27,80,54
27,83,56
27,82,54
26,82,55
29,95,54
28,105,54
27,99,54
28,99,54
27,97,53
27,91,52
28,94,53
27,92,52
28,92,44
29,94,53
27,96,52
26,103,53
28,98,52
26,94,52
27,92,52
27,95,51
26,100,51
29,95,51
28,100,51
27,100,52
27,95,50
28,99,50
27,93,49
27,96,49
27,94,50
27,89,50
28,97,49
26,92,51
28,88,50
28,94,49
32,90,50
27,93,50
27,93,50
23,92,48
27,93,48
27,87,50
28,93,49
26,90,48
27,88,49
28,92,48
27,95,49
28,102,49
27,100,50
28,106,47
27,101,48
27,102,48
27,105,49
27,107,48
27,110,49
26,113,48
28,115,48
27,114,48
27,111,47
27,115,49
29,114,50
26,110,47
29,116,49
27,113,50
28,107,49
27,114,48
28,225,58
30,224,58
30,213,58
29,217,59
29,214,58
28,210,59
27,212,58
28,193,60
27,196,59
28,190,59
27,184,61
29,181,59
28,172,58
29,173,58
26,177,58
28,170,58
28,170,59
27,168,56
28,168,58
27,167,58
28,159,58
27,159,55
27,156,55
28,152,58
28,160,57
27,158,55
28,155,55
27,150,55
26,151,56
28,155,57
28,146,55
28,144,55
28,139,56
27,155,53
28,153,49
27,155,53
28,155,55
28,149,54
27,148,52
27,153,53
27,151,51
28,148,53
28,148,53
26,142,53
27,146,54
28,140,52
29,149,52
29,150,51
26,148,52
28,156,53
29,146,52
26,146,51
28,141,52
28,144,51
27,145,51
28,143,52
27,144,51
28,134,51
28,136,51
27,140,50
28,188,49
30,185,50
28,176,51
29,174,50
28,177,51
28,173,49
28,179,49
28,171,49
29,171,51
29,169,49
29,165,49
29,181,49
29,175,48
29,174,49
28,174,48
30,181,50
29,179,49
28,174,48
29,182,49
28,190,48
28,183,47
28,184,48
28,180,47
27,185,50
29,185,49
17,188,48
28,192,48
28,183,48
29,180,48
28,185,49
28,121,60
28,122,61
28,116,59
27,113,63
28,111,59
27,106,60
27,112,61
27,112,58
27,113,61
27,107,60
27,113,60
28,112,58
25,107,58
28,101,58
26,107,57
26,112,56
26,104,55
26,108,56
27,104,52
26,104,56
27,100,55
28,107,55
28,103,54
29,101,55
26,103,55
28,101,53
29,102,54
25,104,54
27,103,54
28,99,53
27,102,53
26,100,51
26,100,53
27,97,51
25,106,52
27,102,51
28,105,51
27,103,52
26,101,51
28,96,51
27,96,51
26,98,51
26,94,51
28,103,51
28,94,49
28,97,52
26,95,51
28,100,52
26,95,49
27,91,51
27,90,48
26,92,49
26,93,50
27,93,49
27,96,48
26,100,50
27,91,48
27,107,46
26,109,49
27,105,49
27,113,51
26,110,51
27,112,48
26,109,49
27,119,49
27,119,48
27,122,48
28,122,48
27,117,49
27,115,49
27,117,48
26,114,49
27,114,49
27,109,49
26,113,47
27,119,48
26,120,47
26,123,49
28,118,48
26,129,49
27,128,48
28,123,48
28,132,50
26,130,47
27,129,48
28,129,48
27,125,50
25,129,48
28,130,48
28,128,48
29,124,58
29,121,58
28,120,57
28,112,58
27,118,58
27,111,56
27,106,56
29,106,58
27,107,59
27,105,57
26,104,59
27,101,57
28,98,59
27,93,57
27,106,58
28,104,56
26,99,57
27,98,57
26,96,56
28,97,56
28,95,57
27,98,57
28,99,54
28,91,56
29,99,56
28,97,55
28,99,56
26,100,54
27,94,56
27,99,52
27,94,55
28,92,54
28,91,54
27,92,55
27,93,53
26,96,54
26,94,54
27,92,53
26,91,52
27,101,52
28,97,53
29,89,52
27,94,55
28,91,53
27,92,54
28,91,52
29,92,52
28,94,50
28,93,52
29,97,51
27,97,51
26,98,52
27,101,50
27,91,51
26,100,51
26,98,51
28,98,52
27,98,52
29,98,53
27,103,51
26,98,49
27,107,51
26,108,49
28,111,50
28,115,52
28,110,49
28,111,51
28,107,50
27,108,50
27,119,50
27,121,51
27,129,49
28,127,49
27,122,51
28,124,44
27,120,50
29,131,49
27,131,50
27,129,50
28,132,51
26,128,49
29,129,49
27,129,50
27,128,49
27,135,48
28,130,49
26,140,49
27,138,48
28,142,51
28,144,48
29,119,58
28,120,58
27,111,59
28,122,58
29,123,58
28,112,58
28,119,59
29,113,59
28,116,60
28,113,60
25,109,58
28,109,58
28,104,59
28,103,58
28,105,59
29,98,58
28,100,56
27,98,59
26,96,58
29,99,57
28,94,58
26,99,56
29,92,56
26,91,57
29,89,57
28,88,56
28,89,54
28,86,56
27,95,55
27,94,53
28,90,55
28,99,54
25,94,54
26,94,55
27,91,55
27,90,53
27,92,52
29,88,53
28,85,54
27,94,54
26,88,55
27,89,54
26,88,52
28,87,54
28,89,53
27,82,53
27,89,52
27,92,52
27,87,51
28,89,52
27,87,53
28,89,53
28,83,52
28,91,51
27,89,52
29,81,52
27,84,50
27,83,52
28,90,52
26,90,50
28,95,52
28,95,51
28,97,51
27,104,50
28,101,52
28,99,50
26,101,50
29,104,52
26,112,51
26,107,51
27,107,49
27,111,50
28,107,49
27,111,49
27,113,50
27,113,50
27,118,50
27,113,50
27,118,49
28,118,50
27,112,50
26,121,49
29,122,51
28,125,49
26,122,50
28,116,48
27,121,50
27,116,49
27,124,51
28,118,50
30,131,58
26,133,57
29,128,56
27,127,56
28,129,57
28,125,57
29,122,55
28,123,55
29,119,55
28,120,57
28,122,43
27,126,54
28,127,53
29,124,54
27,125,54
29,119,53
26,124,53
28,119,53
28,118,53
27,122,52
29,118,53
29,121,51
29,123,52
26,120,51
29,115,52
28,118,51
28,123,50
26,129,50
28,126,50
27,128,50
28,132,48
28,130,49
28,125,51
27,124,50
27,123,49
28,118,50
27,115,49
28,118,48
28,115,48
28,119,50
27,125,47
27,121,50
28,123,47
26,129,48
27,129,47
28,129,47
24,130,49
27,128,48
28,130,49
27,133,46
27,131,45
29,127,48
28,128,47
29,122,49
27,124,47
29,116,48
27,121,48
29,121,50
27,119,47
28,122,49
28,120,49
27,119,49
29,121,52
28,118,51
27,119,50
28,110,52
27,116,54
27,118,52
28,122,55
28,126,53
26,125,54
27,131,55
28,126,53
27,129,54
27,124,56
27,125,53
28,123,55
28,124,54
27,124,56
27,126,54
28,123,57
28,120,55
26,120,55
28,123,55
26,131,56
28,119,56
28,131,56
28,129,56
28,132,56
28,134,55
29,126,58
26,124,59
28,116,59
28,113,59
27,121,58
28,117,58
28,115,59
28,115,57
29,119,56
27,123,57
27,118,56
27,121,56
27,124,56
28,114,55
27,116,55
28,111,54
32,111,56
26,111,52
28,108,53
27,113,52
27,113,54
27,106,53
27,107,51
29,103,53
27,106,52
28,101,52
28,102,52
28,100,52
28,98,50
27,106,49
28,102,50
28,98,52
27,99,50
26,100,48
28,101,48
29,98,48
28,97,49
27,93,50
29,94,50
28,99,49
29,93,49
27,96,49
28,93,49
28,88,49
27,94,49
28,98,50
28,93,48
29,96,48
28,104,49
26,114,47
28,114,47
26,121,47
26,127,48
28,120,48
28,128,48
29,131,48
28,129,49
28,124,47
27,120,48
26,124,45
28,121,48
27,111,49
28,115,46
26,116,47
26,123,46
27,120,49
28,115,48
29,117,48
28,118,47
29,124,47
29,121,45
28,132,48
27,131,48
27,128,48
29,126,48
29,121,48
26,129,48
29,125,47
27,124,49
28,132,49
29,131,48
27,137,47
28,132,50
29,132,49
28,132,49
27,130,51
28,138,51
26,139,50
27,129,53
26,135,52
28,103,57
28,109,55
29,108,55
29,107,55
27,114,56
29,106,58
29,109,58
28,108,56
28,102,55
28,105,55
27,102,55
28,105,54
28,105,53
28,101,53
27,104,54
27,103,53
27,100,53
28,103,53
29,98,51
28,101,52
28,95,50
29,98,51
28,96,51
29,92,51
26,103,52
27,104,49
28,100,49
27,101,50
28,98,49
27,99,49
27,91,48
26,99,49
27,98,50
29,96,48
27,97,47
27,95,48
27,96,49
28,103,49
27,100,49
28,117,49
28,114,49
27,110,46
27,114,49
29,106,49
27,113,48
27,107,50
28,109,49
28,113,52
29,108,50
27,111,49
26,106,52
27,104,50
29,106,52
28,99,52
27,106,53
27,100,54
27,108,52
28,115,54
27,118,55
27,112,53
27,113,54
28,114,55
26,121,54
28,113,57
27,121,55
28,105,54
28,117,56
27,122,55
15,123,55
28,126,57
28,127,56
28,122,56
27,131,57
27,125,56
26,128,56
27,128,56
27,130,54
27,132,57
28,125,55
28,124,55
27,123,57
28,120,57
27,128,56
27,132,57
26,138,55
26,136,55
28,133,56
29,137,56
27,129,55
27,132,54
29,107,55
26,106,53
27,110,53
27,106,56
27,110,55
26,100,54
27,102,53
26,105,54
28,105,55
28,99,55
27,101,53
28,101,54
29,106,53
27,103,54
27,104,51
27,113,53
28,121,50
26,120,52
28,110,50
26,111,50
28,106,49
26,111,51
26,105,50
28,107,50
26,103,52
26,100,50
28,99,49
28,95,49
26,95,48
27,93,49
28,93,49
25,100,48
26,101,47
27,97,50
26,100,46
29,93,69
27,98,47
26,103,48
28,102,49
25,104,48
28,99,47
29,103,46
28,103,47
26,103,48
26,103,46
26,104,48
26,103,49
27,107,47
27,99,48
26,100,46
27,93,48
27,97,49
27,100,49
27,96,49
28,101,50
27,100,48
27,97,49
27,95,50
26,95,51
28,103,52
27,104,53
26,106,73
28,106,52
27,104,54
26,107,53
27,99,52
28,97,53
28,98,53
26,108,52
26,108,53
25,104,53
27,105,53
27,105,55
26,109,54
28,110,54
28,102,54
26,102,54
27,108,54
28,102,54
29,110,54
26,111,55
27,113,56
28,108,56
27,120,55
26,117,53
28,115,50
28,113,54
27,115,55
27,114,53
27,118,55
28,100,54
29,99,55
27,96,54
27,101,55
27,96,54
28,96,54
28,91,55
28,94,53
28,91,54
27,93,53
28,87,54
28,91,53
27,88,51
27,87,52
29,84,52
28,86,52
29,90,51
27,88,51
28,88,52
29,87,51
29,85,47
28,90,48
27,81,50
28,80,51
28,85,50
26,83,51
28,79,48
28,84,48
29,84,47
28,81,48
27,80,50
28,84,47
27,89,49
28,94,49
27,92,49
28,87,47
27,87,47
27,84,47
26,89,45
26,87,47
26,87,49
27,85,48
26,85,48
26,86,48
28,86,48
27,85,50
27,86,48
28,82,48
27,77,50
27,80,50
26,76,50
27,82,51
28,78,52
26,79,52
28,76,52
26,80,53
27,84,54
28,78,53
26,82,54
28,84,52
26,84,53
27,90,53
28,85,54
27,81,54
27,88,53
27,91,55
29,87,54
27,91,54
27,91,55
26,87,54
27,83,56
27,89,55
28,89,55
27,97,56
27,96,55
27,92,54
28,94,57
26,88,55
26,95,53
28,92,54
28,99,55
27,97,53
27,98,55
28,106,54
28,105,54
28,113,54
27,114,55
28,111,53
27,108,54
28,111,53
27,122,53
27,124,54
28,122,55
28,109,55
28,113,54
27,117,55
27,116,55
28,110,54
28,107,54
26,115,55
29,109,53
27,103,53
27,107,53
29,103,52
28,109,52
27,104,53
27,106,52
28,109,51
28,99,51
28,110,50
28,113,51
29,102,50
27,108,50
28,105,48
28,105,49
27,105,50
27,99,50
26,103,49
28,100,48
28,106,49
27,112,49
26,107,47
28,104,49
26,101,48
27,105,47
28,99,48
27,97,48
26,97,46
27,94,47
26,95,48
28,94,48
28,99,50
27,102,48
28,95,49
26,98,50
28,97,51
27,96,53
27,93,50
28,89,50
27,93,53
25,90,52
27,99,51
28,99,53
27,95,52
28,96,53
27,96,53
28,91,54
27,96,54
29,96,54
27,104,55
27,103,55
28,102,55
26,101,55
27,99,56
27,108,56
28,111,55
26,108,55
28,112,55
27,108,54
28,123,57
27,124,55
27,120,55
27,116,56
26,119,54
26,123,60
27,116,55
26,130,53
28,130,54
26,132,55
27,131,55
28,127,56
26,127,54
27,126,54
27,127,53
26,130,54
28,127,54
26,133,54
28,130,55
26,129,54
26,131,54
29,100,54
27,102,53
28,102,53
27,104,53
28,100,55
29,95,55
28,96,53
29,89,53
29,90,55
29,95,53
26,91,53
27,90,51
26,83,50
27,89,52
28,91,50
27,87,53
25,93,51
26,90,50
27,89,51
26,89,50
25,87,50
27,89,50
26,87,50
27,85,49
28,88,50
26,89,50
25,88,48
27,81,49
29,83,50
27,85,48
26,81,47
27,84,49
26,84,47
28,79,48
28,86,48
26,84,48
27,83,48
28,78,49
26,84,46
28,81,47
27,79,45
26,82,46
27,78,47
27,82,49
27,83,47
27,89,46
28,89,45
27,89,49
27,91,49
26,95,50
28,90,50
28,88,50
26,88,51
28,87,50
28,92,52
27,90,52
27,98,54
26,90,55
27,89,53
27,74,53
26,100,54
26,102,52
27,104,54
25,103,53
26,104,53
26,96,54
28,95,55
26,99,55
25,101,53
27,103,54
27,111,56
26,116,53
28,106,55
26,111,56
29,107,55
28,111,56
27,106,54
27,111,54
29,107,55
26,112,55
29,111,54
27,113,54
29,104,55
28,114,54
26,110,55
27,107,56
27,106,53
27,108,55
29,104,56
28,105,55
28,135,62
26,126,62
26,128,62
27,130,62
29,131,62
28,132,61
28,130,61
28,126,62
29,123,62
26,124,60
27,122,60
27,117,60
28,124,59
29,122,58
29,116,58
27,122,57
26,119,57
28,110,59
27,114,57
27,119,58
29,118,57
28,120,56
27,116,57
26,109,55
28,111,55
28,104,56
28,105,56
28,104,54
28,105,53
28,105,54
27,105,54
28,103,54
29,99,53
28,106,53
27,108,52
26,102,54
27,105,51
28,98,53
27,100,52
27,99,52
28,101,52
28,101,52
28,100,51
28,97,51
27,98,50
28,99,51
29,96,49
27,100,49
28,100,49
26,103,50
28,101,50
26,105,50
26,96,48
27,105,51
28,107,49
29,106,52
29,105,48
28,100,48
27,106,49
28,107,49
28,111,49
27,110,48
27,110,50
27,114,50
28,114,48
27,120,48
29,118,48
28,125,50
28,130,47
27,138,48
26,147,48
28,151,48
28,147,47
27,155,49
27,152,48
27,160,47
27,156,48
27,162,48
25,161,48
28,152,52
28,148,47
26,151,48
28,141,47
29,137,47
28,137,49
28,136,48
27,138,48
28,133,48
27,131,47
28,138,48
29,137,54
28,147,53
28,137,53
29,138,53
27,129,53
26,129,54
29,123,55
27,122,56
28,114,56
29,114,55
27,108,54
28,102,54
27,105,56
27,105,53
27,104,53
28,100,56
26,103,54
28,99,54
27,102,54
28,100,53
29,94,56
28,96,56
26,97,54
27,93,55
27,104,56
28,96,54
27,98,53
28,98,54
26,95,53
27,92,54
28,93,53
27,95,54
28,91,53
28,95,53
29,101,54
27,94,54
27,91,53
28,96,53
28,99,54
27,99,53
26,96,53
28,96,51
28,95,52
26,94,53
27,98,52
28,98,52
26,103,53
28,103,51
28,95,51
27,95,53
28,88,52
28,87,51
27,90,44
28,94,52
29,97,51
27,90,52
27,93,51
27,103,50
26,94,49
28,99,51
27,102,52
28,102,50
26,103,50
27,96,51
28,99,51
28,98,49
28,108,50
27,103,49
27,103,51
27,106,50
27,99,51
27,106,50
27,104,51
27,115,50
28,107,50
28,107,50
29,114,50
28,112,50
27,105,48
28,114,48
26,118,49
29,120,49
27,119,51
28,122,47
28,127,50
26,122,50
28,121,49
28,124,50
27,123,48
27,124,49
29,118,58
29,114,57
28,110,60
28,112,57
27,115,60
28,108,60
28,108,61
27,110,60
26,108,59
28,108,60
28,102,54
27,105,59
28,96,61
26,104,58
27,101,59
26,103,64
27,97,59
27,99,58
27,101,58
27,99,60
27,93,59
28,98,58
28,99,58
28,103,58
27,105,56
26,103,55
25,104,55
28,105,56
27,106,55
27,103,57
29,102,57
29,104,55
25,100,55
28,103,55
28,101,56
27,99,55
28,93,53
26,93,56
27,95,54
27,94,55
28,89,52
29,94,53
27,92,53
28,96,53
28,96,52
28,91,51
27,94,51
27,95,53
28,89,51
26,93,54
25,100,53
28,95,52
27,97,52
28,104,52
28,102,52
26,96,51
28,96,52
27,102,53
28,104,49
27,114,50
27,118,52
26,129,49
28,125,50
27,125,51
26,133,51
26,123,49
28,124,51
26,123,49
26,131,50
27,133,51
27,134,50
28,128,50
28,132,50
29,130,51
25,135,49
26,141,49
28,140,50
26,130,49
29,138,48
28,142,50
27,140,49
26,139,48
28,145,48
28,152,50
27,149,51
29,143,49
27,142,48
26,140,48
25,143,49
27,141,50
29,120,46
27,119,46
29,116,45
28,119,47
27,119,47
28,122,47
28,120,49
25,119,47
28,123,48
27,116,47
28,113,48
28,110,49
28,112,48
27,113,48
27,112,48
27,110,48
27,108,50
28,106,49
27,111,51
28,111,51
27,111,50
28,103,52
27,109,50
27,105,51
26,110,50
27,112,51
24,109,51
27,110,52
27,103,51
27,104,49
26,110,52
27,100,53
28,101,52
27,106,51
27,105,51
26,103,53
26,104,51
26,108,50
26,111,53
28,104,53
28,110,54
27,110,51
26,111,52
28,110,52
28,107,53
29,113,52
26,108,50
27,104,50
28,108,52
26,108,51
26,110,52
27,103,52
27,108,53
28,103,51
27,106,50
27,107,52
28,108,52
27,105,52
28,102,50
27,113,50
27,117,49
27,109,51
26,106,50
26,106,49
27,109,50
28,110,49
27,104,50
27,109,50
28,106,50
26,108,50
26,108,51
27,110,51
28,112,48
27,117,49
28,121,51
28,121,48
27,123,47
29,119,50
28,120,50
29,120,50
27,121,48
26,123,49
27,115,51
27,123,50
29,127,48
28,131,47
29,125,47
27,129,48
26,136,48
27,131,48
27,114,61
27,121,62
29,112,62
28,114,60
28,118,61
28,116,61
27,127,63
26,124,62
28,117,62
29,127,61
28,118,60
27,122,60
26,123,61
28,125,60
27,124,59
27,114,60
27,122,59
27,121,59
26,121,58
27,126,57
27,127,57
28,128,58
28,129,56
28,118,58
27,124,57
29,120,57
27,120,55
28,118,57
28,124,56
26,126,56
27,119,54
28,125,55
27,121,54
28,122,54
28,124,55
27,119,54
26,102,53
28,123,55
27,118,53
28,122,52
28,117,53
27,127,51
26,128,52
27,120,53
24,120,52
28,116,51
26,118,51
28,118,51
27,119,52
27,126,50
28,115,51
26,121,52
27,119,49
27,116,51
28,116,50
27,109,50
26,122,50
27,123,52
28,120,51
27,126,50
27,117,50
27,123,49
26,127,51
26,129,50
27,132,49
29,122,51
28,126,50
27,127,49
25,129,48
27,130,50
28,123,48
27,130,49
29,127,48
29,129,48
28,131,48
27,131,49
29,133,49
28,136,49
27,134,49
27,135,49
28,128,49
28,136,49
28,127,48
28,120,50
29,121,48
26,126,49
29,125,50
27,128,49
27,131,48
28,136,50
29,97,54
27,100,57
28,98,54
27,99,37
27,99,55
27,100,54
28,101,53
28,94,54
28,91,54
29,95,53
29,101,53
27,101,53
28,101,53
26,101,54
28,96,53
27,90,52
26,93,50
29,91,51
26,97,53
26,101,50
27,96,50
28,98,51
27,93,50
28,89,51
29,94,51
28,88,48
28,92,48
27,94,48
27,93,49
26,89,49
29,91,49
29,96,47
27,93,48
28,90,48
26,94,49
28,93,48
28,95,47
27,97,50
28,94,49
27,93,50
26,93,50
28,99,49
29,99,49
29,91,49
28,92,50
27,93,51
27,95,46
29,101,53
27,98,53
28,100,52
28,104,52
25,101,54
28,98,55
27,99,54
26,101,54
26,97,54
26,97,55
29,99,55
27,93,54
27,98,56
27,100,56
27,99,55
29,100,57
28,99,57
28,101,57
28,100,55
27,101,44
27,100,56
27,95,57
27,97,56
29,95,57
27,100,55
27,102,58
26,109,57
26,100,56
27,106,55
26,100,55
28,107,57
27,104,56
27,104,56
29,102,58
28,111,56
25,117,56
28,105,55
29,106,56
27,112,56
27,112,55
27,114,56
28,116,55
28,117,54
28,109,54
28,104,53
27,99,56
28,96,55
28,102,53
27,113,54
29,108,53
26,107,54
27,107,55
28,105,53
27,103,54
28,97,51
25,100,51
26,100,52
28,99,51
31,100,52
26,98,50
27,106,49
27,109,51
26,107,49
27,103,51
26,103,50
28,101,49
26,105,49
26,104,50
27,104,50
26,101,48
25,103,48
27,98,49
28,95,48
26,102,48
27,98,49
28,95,49
28,93,50
27,97,48
27,94,44
26,97,47
27,97,48
26,95,49
27,99,49
27,96,47
27,99,49
26,105,48
28,110,48
28,116,49
28,114,50
26,110,51
28,108,50
28,104,51
24,105,51
27,108,52
26,106,53
27,105,54
26,104,53
27,106,54
28,100,53
27,99,53
28,97,56
28,96,54
27,102,55
27,108,56
27,109,55
27,104,54
28,100,57
26,104,56
27,113,56
27,107,56
27,105,55
28,109,56
26,109,56
27,106,56
26,108,56
28,105,57
27,108,56
26,114,55
26,114,55
26,111,57
27,122,57
28,121,56
29,116,56
28,119,54
28,120,56
26,120,55
27,119,56
28,116,55
26,122,55
28,119,54
27,116,53
28,115,54
27,122,55
28,115,57
28,114,59
28,119,61
27,114,58
28,110,57
26,111,59
27,105,57
26,112,57
28,115,56
28,105,55
27,108,54
27,108,55
27,109,55
27,106,53
28,102,54
26,109,53
26,106,52
27,109,53
27,109,52
28,104,52
26,108,53
26,107,52
27,105,51
26,109,51
27,108,52
28,106,51
28,107,52
27,109,50
28,109,50
28,102,48
28,103,50
28,102,50
27,105,51
26,111,48
28,104,48
28,100,49
29,99,48
28,99,49
28,104,49
28,105,48
28,104,47
27,110,47
28,102,48
28,102,48
27,104,48
27,112,49
25,107,47
27,110,46
28,107,48
26,104,47
27,108,47
27,112,48
29,102,46
27,101,46
28,105,47
27,103,46
28,103,49
28,108,48
26,107,49
26,106,48
26,104,49
26,106,49
29,106,51
27,106,50
26,101,53
26,104,51
27,104,52
26,111,52
26,112,53
27,110,53
28,109,53
27,114,52
28,108,53
26,112,54
28,109,54
27,116,54
26,119,54
26,121,55
27,119,54
27,123,53
28,128,56
27,128,53
28,127,54
27,132,55
27,131,54
27,128,55
28,131,55
28,140,54
27,137,54
28,134,57
26,131,53
28,132,54
27,137,56
27,138,53
29,131,54
27,134,55
29,128,53
27,125,54
28,119,53
28,119,52
27,113,53
29,119,52
28,116,53
28,113,52
27,112,53
27,111,51
26,106,50
23,106,51
29,104,51
27,104,51
27,103,50
27,105,51
28,102,49
26,103,47
28,101,48
27,104,49
26,100,48
28,94,48
28,97,48
28,92,48
28,93,49
29,90,48
29,88,48
28,88,47
28,94,47
27,98,47
27,96,48
28,100,47
28,97,48
28,89,48
29,89,48
27,90,48
26,93,48
28,97,49
28,96,50
26,97,49
29,92,50
27,91,51
28,90,50
27,98,53
27,100,53
26,98,53
26,103,52
27,110,52
28,102,55
27,103,52
27,110,54
29,112,53
28,112,54
28,108,55
27,107,55
25,110,53
27,106,52
28,107,55
26,111,56
28,112,55
28,118,54
27,116,55
26,120,54
27,115,56
27,114,56
27,119,57
28,112,56
27,118,53
27,125,56
28,122,54
27,118,54
28,116,53
29,122,55
26,130,57
28,125,55
27,124,54
29,134,56
28,136,55
27,127,56
26,125,56
26,127,54
27,129,54
27,128,54
28,135,55
28,103,48
27,104,49
28,100,48
28,101,50
27,93,51
27,95,50
27,97,50
29,93,52
28,97,52
27,93,51
28,91,51
27,96,53
29,102,52
28,96,52
27,99,51
28,103,51
29,94,52
27,98,52
29,109,54
28,101,51
27,108,51
28,103,52
27,106,52
28,114,53
27,107,53
27,105,53
28,103,53
26,110,53
27,105,55
26,97,53
27,96,52
28,91,51
25,105,53
28,108,52
27,104,52
26,104,50
29,104,51
28,102,53
28,101,52
29,97,52
26,101,52
27,96,50
27,96,52
26,96,53
28,101,52
27,95,53
27,96,52
27,93,52
27,103,51
26,101,52
28,98,49
27,98,50
27,101,51
28,102,51
27,106,55
26,111,49
26,103,51
26,101,51
26,109,50
26,102,49
28,104,52
27,107,50
31,114,50
27,111,51
26,115,49
27,107,51
28,104,49
26,108,50
26,103,49
27,100,49
27,105,49
28,110,47
26,111,50
28,112,48
26,109,50
27,104,51
28,97,50
25,105,47
27,102,47
26,105,49
27,106,49
27,112,49
27,110,49
27,115,47
28,115,47
27,118,47
28,121,50
25,133,47
27,137,49
27,136,48
28,116,47
27,113,47
27,111,48
29,106,48
27,107,46
27,102,47
28,103,47
27,103,49
27,103,48
27,108,48
27,103,49
27,98,51
27,101,51
27,96,51
28,105,50
27,97,53
28,100,53
29,98,52
28,97,51
27,101,50
27,97,52
27,93,53
27,95,54
27,96,53
28,104,52
28,96,53
25,102,52
27,106,54
28,108,53
28,100,53
26,99,54
28,98,54
29,102,53
27,106,52
28,107,53
28,99,52
27,95,52
26,97,53
28,96,53
28,107,52
28,111,53
26,115,53
28,108,54
27,101,55
27,103,53
28,100,54
26,98,53
26,99,51
26,103,54
26,104,52
27,98,53
26,96,52
26,97,52
28,90,53
28,100,53
26,97,52
27,93,53
27,94,53
27,99,52
27,99,51
28,99,49
27,108,51
27,111,49
27,111,51
28,113,52
27,116,50
28,120,50
29,114,52
28,109,50
26,112,50
29,103,50
28,113,50
28,113,51
28,112,50
27,119,50
29,118,57
28,126,49
28,123,50
28,117,48
27,122,49
27,121,50
27,128,51
29,129,51
26,130,49
28,133,49
28,127,47
25,134,50
27,129,50
27,129,50
26,134,49
28,97,53
28,93,56
27,99,54
28,93,52
28,92,54
28,98,54
27,96,53
29,98,53
35,95,54
26,94,52
28,89,52
28,90,54
26,92,52
25,89,49
28,92,51
29,90,52
27,87,51
26,88,51
26,85,51
28,92,50
27,95,52
28,93,51
28,93,50
27,90,49
27,92,49
28,92,49
28,89,48
27,90,50
28,85,49
28,82,48
28,83,49
27,84,48
26,86,48
28,81,47
27,86,48
28,81,47
27,83,47
27,88,48
27,84,49
28,85,48
27,83,51
27,84,51
27,88,48
26,86,50
28,86,52
28,81,52
26,85,52
28,86,52
28,81,53
27,80,53
28,80,52
28,78,54
27,78,54
28,77,55
27,80,61
27,84,54
26,89,54
28,88,56
28,85,55
28,87,55
27,87,56
28,83,55
27,84,56
28,80,55
27,88,55
26,90,55
28,87,55
28,99,56
27,94,55
28,95,55
27,96,56
27,99,57
28,98,55
30,96,56
26,104,54
27,101,56
28,98,55
27,100,54
27,102,54
28,100,54
28,98,56
27,110,55
26,110,54
27,107,54
28,107,54
28,116,53
26,126,59
26,127,53
28,125,53
27,128,55
27,110,53
27,118,54
29,120,55
28,112,56
27,121,55
28,110,57
26,110,57
28,111,55
28,112,54
27,107,53
27,104,52
27,104,53
27,103,52
28,101,54
27,106,53
26,108,53
27,107,53
26,101,52
28,96,52
26,97,51
26,95,52
27,99,51
27,100,50
28,97,52
28,96,50
28,99,51
29,97,52
27,98,50
27,99,50
25,99,48
26,101,49
29,97,49
26,99,49
29,96,52
26,93,47
27,90,49
28,98,49
26,97,48
26,98,49
29,97,50
27,97,49
27,97,48
28,95,47
29,95,48
32,98,48
27,100,48
27,100,47
28,99,47
26,102,45
28,94,47
27,96,49
27,91,48
27,95,51
28,92,50
27,95,49
27,92,50
26,91,51
27,89,53
27,92,53
27,103,51
27,99,52
27,101,52
28,99,52
27,103,54
27,100,52
27,102,53
27,103,54
27,101,56
27,108,53
28,104,56
26,109,55
28,113,52
29,118,55
27,121,55
27,121,56
27,120,56
27,130,58
28,125,57
27,124,57
27,122,56
28,116,56
28,117,56
29,120,55
29,127,57
28,130,56
27,131,57
29,124,55
27,126,56
27,130,55
26,129,55