v1,v2,v3
33,78,67
33,81,70
31,83,76
42,83,74
33,89,76
37,91,74
36,98,73
34,109,73
36,110,71
34,120,71
32,125,71
32,131,70
33,138,69
41,143,67
40,144,65
40,144,66
39,140,67
38,151,73
34,154,82
34,158,92
33,157,134
32,150,129
30,149,127
29,134,142
28,132,147
30,135,162
30,155,156
33,188,164
33,242,154
36,322,154
40,418,151
39,542,155
42,680,154
40,821,150
39,955,139
40,971,136
40,967,129
40,970,122
39,969,121
42,971,118
47,972,118
49,968,116
52,970,110
52,970,127
55,971,128
62,973,118
65,970,117
71,971,115
73,971,137
79,970,131
82,970,124
88,968,121
96,971,118
100,972,124
107,972,118
114,970,117
120,971,120
128,971,114
134,972,123
144,971,119
150,971,130
161,971,135
171,970,136
177,970,142
187,973,159
196,975,160
208,966,154
219,969,147
228,972,144
241,972,140
252,972,144
266,969,144
279,972,146
292,969,139
306,969,140
321,970,139
333,970,137
348,969,131
357,971,133
365,974,135
375,971,132
386,969,124
397,874,119
404,747,123
414,654,125
421,586,126
428,544,121
432,508,114
432,491,109
433,488,104
31,133,120
32,132,119
30,127,126
28,132,127
33,131,133
29,125,138
33,124,144
41,120,151
39,115,153
37,109,156
36,112,161
33,115,161
40,117,163
40,117,162
48,119,163
45,121,167
43,124,165
40,131,167
42,130,161
37,131,160
37,131,160
36,130,155
40,124,150
42,134,139
47,126,143
55,127,139
65,122,129
78,124,130
90,128,121
106,135,115
121,145,115
137,149,108
157,158,102
174,165,97
192,171,95
212,179,95
230,193,94
250,197,91
267,202,86
282,214,84
298,214,83
309,222,79
322,223,75
334,229,83
345,227,81
355,235,86
361,250,94
373,254,100
380,270,112
390,279,127
397,295,141
405,307,156
416,314,157
425,323,168
435,327,177
450,328,183
462,339,192
482,335,199
497,341,210
518,320,217
544,333,221
568,333,229
596,326,243
623,317,248
653,304,257
685,292,264
712,288,260
746,274,258
775,262,257
811,246,253
846,230,250
878,218,242
900,207,213
924,198,194
944,189,180
964,174,185
968,167,211
970,156,264
969,144,283
969,137,305
970,130,322
970,119,332
970,110,337
971,103,343
970,96,346
969,91,344
968,91,341
972,84,334
983,83,327
967,79,323
41,278,302
44,277,300
48,278,294
47,274,288
51,276,280
51,278,272
54,274,267
55,274,258
55,278,250
56,274,250
60,277,241
60,275,239
71,277,237
70,278,229
71,275,229
77,275,227
94,278,221
103,275,224
107,274,222
112,272,222
132,266,224
131,261,218
137,258,211
133,256,204
133,253,211
131,256,205
119,249,202
122,248,202
120,242,194
118,240,194
113,235,193
110,227,187
105,219,179
97,213,172
89,211,165
82,209,158
75,204,157
67,206,150
62,205,142
57,203,140
54,206,134
51,202,132
51,201,129
57,202,129
63,198,130
73,199,134
84,194,144
94,193,153
108,184,160
116,178,167
130,166,174
142,151,183
158,148,190
173,149,200
192,153,210
212,155,220
233,161,230
258,164,242
280,172,252
300,174,264
325,174,276
344,181,287
364,181,298
388,178,304
408,177,309
434,164,314
463,161,316
489,149,323
520,140,328
553,133,333
589,118,342
620,113,353
659,105,366
695,95,382
733,96,397
763,95,413
800,93,428
832,97,416
864,97,393
893,100,379
925,105,372
955,106,375
970,107,397
972,109,442
971,112,467
971,111,483
970,114,496
969,116,507
971,118,512
971,118,518
347,117,62
347,112,61
350,108,60
335,106,61
349,103,60
355,101,61
368,102,68
349,102,68
351,103,70
350,113,71
351,108,69
351,108,68
347,108,75
345,104,72
339,106,72
334,98,75
330,97,77
323,92,82
322,91,83
309,90,88
300,89,93
297,93,96
283,91,100
265,96,98
258,96,106
265,99,113
248,101,115
230,96,120
210,102,124
190,107,127
170,112,131
151,119,128
136,129,129
122,138,128
110,144,126
105,150,123
106,161,119
112,170,117
123,188,112
137,201,108
155,218,106
177,233,100
204,245,100
230,262,96
258,275,93
291,292,90
320,306,87
352,323,63
380,346,80
410,365,75
438,386,74
465,413,73
496,430,68
522,456,68
550,474,66
581,494,65
611,509,67
643,511,66
674,522,66
707,526,66
737,530,66
764,534,69
792,525,63
817,522,65
845,517,76
871,510,70
894,504,80
920,493,74
944,481,78
955,468,83
970,453,88
968,441,98
970,424,106
970,408,116
970,391,129
971,374,137
971,357,150
971,338,157
971,316,172
970,295,195
970,277,199
970,246,187
971,230,189
971,210,221
972,184,248
972,168,275
970,150,297
969,142,311
955,131,322
971,126,330
24,390,165
24,393,161
24,398,160
24,400,165
23,405,157
25,405,156
23,405,154
25,405,151
22,405,146
24,406,143
23,405,141
24,410,138
24,411,143
23,412,144
24,418,145
24,417,152
24,420,156
25,423,156
23,421,165
25,425,165
26,426,171
30,425,176
39,427,178
38,423,185
36,423,195
38,418,193
41,405,195
48,389,195
84,372,193
82,359,191
84,341,190
82,318,183
81,283,176
79,269,177
83,258,166
80,260,163
81,264,168
81,260,162
77,244,166
72,228,168
66,213,170
60,220,175
57,235,165
51,257,159
48,298,155
57,335,162
69,376,161
85,409,161
114,445,162
139,496,160
173,566,160
209,656,160
245,766,155
285,886,154
326,970,150
371,971,144
413,968,139
454,972,132
498,971,120
540,969,117
582,972,117
620,972,122
657,970,134
693,973,142
724,969,153
759,973,162
794,971,170
825,972,183
860,970,194
888,971,205
921,970,211
956,970,219
970,970,230
971,971,239
971,970,243
971,970,254
971,969,270
971,971,283
970,973,294
970,972,312
970,898,332
971,805,359
970,723,383
969,643,407
970,558,436
970,482,456
971,422,477
969,378,491
972,346,509
970,328,523
23,67,129
24,66,122
23,66,118
24,67,110
23,68,108
26,70,105
29,68,99
34,70,99
40,70,96
62,70,95
89,73,95
87,66,91
82,71,93
109,68,92
129,66,92
122,68,96
124,68,91
113,69,93
107,67,88
97,68,83
102,70,81
99,67,79
99,66,77
101,66,73
92,67,73
98,69,71
98,68,73
91,67,73
87,67,73
86,57,71
85,69,70
89,70,70
97,71,68
110,70,79
127,66,91
146,73,87
174,76,95
205,72,99
242,73,93
278,77,91
321,81,93
369,84,94
415,90,96
466,91,100
517,87,102
566,96,106
620,94,108
667,98,114
711,99,119
751,106,130
791,113,148
829,114,165
867,120,184
908,129,206
944,135,228
971,138,252
970,149,274
968,161,297
970,166,310
970,172,325
971,177,338
970,178,351
970,184,363
970,188,374
971,192,390
970,190,401
970,194,413
970,196,425
971,194,433
971,196,435
970,199,438
970,201,445
970,203,450
972,200,448
969,201,451
968,202,448
972,196,448
971,202,449
970,199,445
969,201,439
970,202,429
972,200,425
971,204,420
970,197,411
970,199,406
968,199,402
970,194,391
971,194,382
969,193,370
971,192,361
44,125,156
42,121,160
46,119,155
51,115,150
48,116,140
46,120,134
45,120,125
41,121,118
42,121,110
48,127,103
48,123,98
45,127,93
42,131,93
52,130,87
48,133,90
45,132,86
42,133,85
41,137,82
40,136,82
38,137,79
37,137,79
35,138,78
34,140,75
33,136,76
32,142,78
31,131,76
30,130,77
34,124,79
37,121,80
36,118,89
38,111,91
39,113,96
39,112,99
54,108,100
53,111,107
47,110,108
44,112,110
42,114,110
40,114,110
37,118,111
37,118,121
40,124,118
47,122,126
55,120,139
76,119,150
91,120,145
118,115,149
147,110,150
181,105,147
219,102,154
260,101,153
304,104,156
344,98,157
389,93,158
434,89,160
476,88,161
520,85,157
562,81,151
610,81,142
654,84,131
693,80,122
732,83,120
766,80,122
803,83,128
840,84,129
876,82,145
913,80,159
949,74,164
970,78,172
970,73,179
971,79,188
971,71,190
972,72,193
971,75,199
971,75,202
971,75,208
971,80,210
970,78,216
971,78,217
970,83,225
971,81,228
971,86,228
971,84,230
970,82,231
970,85,230
969,77,229
971,82,226
972,83,224
970,80,222
971,78,219
347,155,120
340,158,127
376,160,126
356,163,134
342,165,129
330,169,129
330,169,127
318,169,123
317,169,123
306,171,122
315,167,116
312,168,112
302,171,106
288,168,103
280,167,97
264,167,94
257,163,93
255,165,87
233,160,83
213,162,81
193,159,80
171,157,77
153,153,76
136,150,72
122,143,71
114,141,72
111,136,72
116,133,70
126,127,67
142,122,67
165,114,67
190,112,67
222,101,64
252,100,65
287,98,68
324,103,67
362,104,69
401,107,68
439,108,74
478,105,75
517,107,77
548,110,82
588,108,81
622,107,88
661,111,81
697,117,102
730,124,114
765,123,128
797,128,144
829,125,162
860,128,178
886,131,198
919,131,206
947,132,230
970,131,246
970,125,259
971,127,273
971,125,286
972,123,300
970,130,311
972,130,323
970,129,334
971,129,342
971,132,357
970,136,367
971,135,376
970,141,385
970,143,395
971,140,403
971,145,404
971,145,410
970,148,415
970,155,414
969,154,411
970,160,404
971,161,393
970,164,384
970,165,361
971,167,346
970,170,330
970,170,315
967,165,297
971,175,281
971,176,266
970,175,253
972,171,239
970,171,226
971,171,219
971,168,210
971,159,204
50,97,72
52,97,72
52,106,71
56,103,75
56,111,73
62,109,76
63,115,80
65,120,78
70,119,81
68,123,80
71,125,86
71,125,88
71,127,89
71,125,96
68,127,98
69,128,102
69,129,104
69,127,106
66,125,111
64,125,111
63,123,114
58,123,116
89,124,117
93,123,117
105,124,115
106,121,115
117,125,113
108,127,108
116,119,114
108,122,110
162,116,115
175,119,114
172,117,109
176,115,113
175,118,114
182,119,120
174,120,115
174,116,109
172,126,105
170,132,99
163,136,100
157,137,98
152,142,92
150,144,92
135,150,89
122,160,96
109,159,93
98,159,104
89,149,94
81,153,91
76,142,89
82,136,87
77,127,90
103,121,88
122,114,90
143,110,89
170,101,87
198,98,88
224,92,85
254,86,85
280,88,81
309,84,78
340,79,82
366,83,94
396,78,108
420,78,134
447,79,158
473,77,179
499,72,201
528,73,219
556,72,237
587,71,248
621,71,257
648,77,268
685,77,274
718,82,278
753,80,282
786,83,284
818,88,290
850,87,294
879,93,301
910,93,311
938,93,322
962,97,331
970,99,340
971,103,351
971,98,363
971,98,373
972,101,384
972,99,387
146,92,97
166,101,97
193,99,96
213,104,95
239,108,92
266,110,100
289,114,104
314,119,96
336,126,97
359,133,99
382,140,93
401,144,95
428,143,124
441,151,147
459,151,145
477,154,138
490,160,129
507,164,124
522,170,116
539,173,112
552,177,104
562,182,99
577,179,94
590,190,90
606,199,84
625,201,85
639,208,88
655,215,86
665,221,83
674,223,81
682,226,83
688,234,78
698,228,77
704,228,76
710,228,76
718,225,79
720,222,88
725,214,90
730,216,101
736,213,111
741,221,127
747,202,148
755,191,152
761,188,158
772,185,159
781,182,162
791,178,165
802,168,167
813,167,168
827,157,174
836,149,178
849,151,181
862,147,179
874,138,182
888,130,183
903,123,181
915,121,187
930,117,191
944,112,201
960,106,210
969,104,220
970,100,234
976,93,239
969,89,250
969,89,259
972,89,256
968,84,256
971,86,245
969,96,230
969,90,215
969,96,203
969,97,186
970,94,167
973,93,153
970,94,138
969,105,128
971,94,117
970,99,107
970,102,102
969,104,96
971,106,92
970,107,84
970,112,80
971,116,77
969,121,75
962,123,71
942,126,69
924,132,69
907,135,70
887,131,69
768,76,970
763,80,972
739,80,971
740,83,971
736,85,972
720,84,971
764,93,972
763,95,972
764,101,971
761,106,967
734,106,967
735,114,971
730,119,971
734,125,971
739,125,972
740,126,972
750,132,972
757,131,972
771,139,972
788,136,973
806,137,974
831,137,971
859,136,971
890,136,972
927,127,970
970,121,970
971,116,971
974,112,971
971,106,971
970,100,973
971,96,971
971,91,976
971,89,971
971,92,971
971,88,962
970,95,945
971,91,928
970,93,910
971,85,894
971,83,876
971,87,861
970,83,844
970,85,829
970,79,813
971,81,798
972,77,785
971,76,770
970,76,755
970,72,742
970,73,728
970,76,715
970,71,702
969,74,691
971,73,678
971,71,667
971,73,655
971,74,645
970,72,633
970,70,623
970,71,611
969,69,602
970,75,591
972,67,580
971,69,571
970,70,562
970,72,552
972,70,544
971,71,537
971,72,526
971,74,519
971,74,510
971,80,500
970,80,494
970,82,485
971,82,476
972,84,468
971,85,459
971,87,453
971,94,442
969,94,435
970,96,429
970,90,421
971,90,413
970,90,408
970,90,400
971,91,393
982,90,387
971,90,381
970,89,375
971,88,369
227,130,335
228,131,335
229,134,336
224,134,334
215,131,333
218,130,333
215,128,336
216,126,336
206,127,335
199,128,339
206,126,343
206,126,347
205,126,353
196,121,355
207,124,354
201,122,361
198,121,376
207,120,365
203,117,366
205,117,373
205,116,379
205,113,377
209,112,382
211,110,384
211,112,388
211,112,390
209,115,390
206,117,396
199,116,391
197,119,392
186,116,392
176,117,388
167,116,390
149,112,390
133,112,395
120,110,389
109,106,380
98,103,380
97,95,379
98,93,385
114,90,408
139,88,385
173,84,376
210,84,357
257,80,352
306,82,352
362,78,345
420,77,342
483,80,337
545,79,342
608,80,343
673,77,340
733,81,342
798,73,341
859,77,342
917,73,345
970,71,346
971,75,348
970,74,343
971,78,347
970,81,349
972,78,352
970,81,356
970,78,359
970,75,366
971,74,366
971,77,368
971,73,367
970,72,366
970,74,367
971,73,360
971,73,356
970,75,356
971,67,353
969,71,349
970,59,348
970,67,343
968,67,342
971,64,341
971,66,339
970,65,341
970,67,337
970,68,339
970,69,336
970,65,339
971,64,340
970,67,335
971,64,337
970,65,338
970,68,337
244,235,971
250,237,971
251,237,970
254,242,971
251,242,970
252,249,971
239,250,970
221,254,970
227,257,972
223,263,970
218,267,971
220,272,970
208,274,970
201,277,971
186,279,970
170,282,970
157,278,971
140,284,971
130,287,970
116,287,969
106,292,971
95,294,971
85,291,970
79,293,970
71,292,970
64,294,971
60,291,971
55,289,970
53,290,971
49,284,970
52,290,971
53,288,969
58,290,971
67,287,972
71,281,971
81,279,970
90,272,970
99,269,969
110,264,970
116,253,971
122,251,970
126,247,970
129,242,970
134,237,968
131,233,963
130,235,951
130,233,944
129,231,936
131,236,922
136,232,916
143,230,905
151,231,895
160,229,888
167,231,873
177,221,865
188,224,850
197,218,834
212,214,821
229,210,802
241,206,786
255,203,769
273,200,752
293,204,732
314,199,722
331,199,704
353,196,692
373,199,677
398,190,665
419,189,651
441,184,636
464,180,617
486,176,600
506,169,588
527,168,572
545,169,557
563,162,545
575,152,533
588,154,524
599,144,507
604,141,492
604,135,482
610,130,471
612,126,463
611,121,456
604,118,446
600,114,442
595,115,432
586,106,428
572,106,428
562,99,423
46,80,345
57,78,365
54,82,383
54,81,400
55,83,413
56,78,428
55,80,440
52,77,446
64,75,451
83,73,456
76,74,459
78,72,455
78,70,454
75,72,450
75,69,444
76,71,438
104,70,429
101,68,413
102,66,417
105,69,400
115,68,399
128,70,390
145,68,381
165,71,372
189,73,357
214,73,348
246,76,331
280,74,317
314,74,301
355,73,291
387,74,282
424,73,271
460,74,265
495,73,256
531,73,250
566,78,247
606,79,253
641,84,241
678,87,233
713,84,227
744,91,226
776,90,227
800,93,226
819,89,230
835,89,232
848,94,239
857,94,241
863,101,246
866,93,253
869,111,261
869,115,275
872,116,283
868,123,290
868,122,305
868,120,316
865,123,330
867,125,346
862,127,362
859,131,376
857,133,395
849,139,417
843,142,438
838,141,460
829,147,489
826,146,509
817,146,532
814,145,554
806,147,572
801,149,589
796,143,598
790,143,612
782,144,620
775,145,627
764,146,635
755,143,646
742,145,648
729,148,649
715,146,654
697,143,653
676,143,651
657,138,650
635,139,653
614,136,660
592,135,664
568,131,664
542,128,669
518,122,674
493,114,681
466,104,681
434,98,687
85,64,170
86,69,171
89,66,169
87,63,169
96,67,169
96,64,170
93,64,174
109,64,175
104,61,177
111,62,174
121,66,175
163,65,176
154,65,175
148,64,172
185,66,166
194,64,166
195,65,167
205,66,167
202,65,168
207,68,164
206,68,161
219,72,161
236,74,154
242,77,153
267,82,146
263,80,140
284,86,136
314,84,127
319,92,123
332,91,118
354,95,119
377,99,107
399,105,102
420,109,101
437,114,99
453,118,97
469,125,98
478,127,97
493,130,97
502,129,105
513,124,107
531,120,110
543,118,109
558,121,114
568,118,120
578,120,118
587,117,121
595,112,121
601,110,122
604,104,124
608,96,126
613,92,129
616,96,130
623,94,137
630,99,140
638,107,144
652,111,152
662,124,152
676,133,155
686,132,158
697,158,159
706,172,156
713,191,147
717,211,145
733,229,140
742,245,133
751,267,122
756,284,122
763,298,114
766,311,109
770,327,107
774,336,108
773,350,102
770,360,93
771,361,92
769,362,87
764,369,84
763,370,81
758,374,77
753,373,78
747,375,70
744,373,72
733,378,71
723,381,76
716,376,80
704,381,77
694,382,76
682,381,82
670,382,79
655,383,72
58,72,76
58,69,73
65,66,70
84,68,68
78,66,68
73,68,65
73,68,64
76,66,64
72,64,68
86,66,66
82,65,67
79,65,65
76,65,69
75,63,67
72,66,67
67,66,64
64,66,66
61,63,65
55,67,63
50,66,64
48,63,63
44,68,72
41,64,73
40,65,73
39,68,71
39,64,72
38,69,74
41,66,80
45,66,83
46,69,81
53,65,92
57,65,95
67,67,90
76,65,87
91,66,91
104,65,99
118,65,103
138,70,106
156,66,106
177,69,105
203,75,108
225,82,107
250,90,108
270,93,113
294,97,118
317,101,113
337,98,123
362,97,134
380,92,139
404,91,148
418,86,152
430,82,160
446,80,170
458,81,172
475,82,177
492,78,179
509,89,174
530,88,169
549,102,156
569,110,145
590,117,141
608,125,131
627,128,120
645,130,113
658,134,108
675,137,106
686,140,104
701,133,99
710,135,94
721,134,88
731,130,86
737,127,80
748,116,81
754,113,82
759,106,80
763,105,90
764,97,92
766,91,97
764,90,101
762,85,111
759,82,119
755,80,116
752,78,125
745,77,134
737,77,138
728,75,150
715,75,162
706,73,168
688,74,176
674,71,171
116,236,220
120,235,218
129,249,231
131,253,234
127,243,220
135,235,222
128,239,222
138,228,215
132,229,214
134,227,209
130,222,213
131,218,209
137,212,205
143,215,205
146,210,198
142,209,196
138,214,205
136,210,198
132,204,196
134,201,193
135,202,193
132,207,194
140,203,192
140,207,198
148,204,193
155,208,209
157,208,205
168,209,207
174,212,195
185,207,206
197,211,207
202,215,213
222,208,209
235,209,203
252,207,202
276,209,204
294,205,200
319,208,195
331,210,198
347,206,193
361,199,189
364,203,190
382,199,190
389,194,189
406,191,188
415,186,191
417,184,190
427,190,212
420,198,228
429,194,241
432,198,259
424,215,293
427,232,321
436,229,327
439,231,328
440,236,329
452,239,321
458,260,327
463,265,321
470,259,317
478,291,337
496,287,320
507,281,316
517,289,296
538,294,280
556,291,270
566,288,256
578,291,240
589,317,255
597,326,268
601,320,269
598,325,272
607,339,277
613,337,297
610,340,321
606,323,309
605,335,327
598,341,332
589,333,317
575,321,365
564,314,404
551,300,425
533,292,449
509,288,423
492,276,383
477,266,355
462,258,327
441,252,304
429,284,300
421,253,277
210,174,141
204,170,141
206,173,144
200,173,145
199,168,149
195,168,149
196,167,149
205,169,151
197,161,147
193,160,148
197,171,140
189,165,148
191,168,148
181,165,146
177,171,147
176,173,148
166,172,148
161,178,152
149,177,152
158,184,153
134,192,161
124,188,162
117,196,172
109,195,189
107,200,192
101,203,192
105,200,189
105,205,187
114,195,190
124,197,186
131,204,186
151,197,183
161,199,183
183,195,181
206,193,184
224,196,184
253,189,175
275,193,175
306,187,169
334,190,170
353,189,165
386,183,161
405,181,161
431,178,162
454,176,162
469,178,164
497,175,163
516,175,167
541,176,188
566,176,170
581,179,166
610,174,175
629,172,178
641,172,176
653,167,170
668,169,177
678,164,176
682,167,170
689,166,170
700,171,163
706,179,161
710,191,157
718,198,154
734,219,154
749,230,153
761,242,151
773,250,147
799,268,147
813,277,145
828,296,148
845,303,147
859,317,150
868,328,152
875,335,152
877,344,154
885,358,157
885,363,161
883,371,162
877,370,160
874,386,165
866,384,167
853,378,167
843,379,164
839,384,176
830,383,184
813,375,182
800,378,180
791,387,184
775,383,181
755,376,175
77,159,275
74,156,276
79,161,263
74,159,258
78,159,250
77,160,238
87,157,243
112,169,236
108,165,230
108,167,231
109,162,227
102,165,230
98,166,226
93,169,216
90,167,213
92,170,206
88,166,191
86,176,198
82,176,195
94,178,203
84,182,208
102,180,212
103,184,212
100,187,207
101,190,203
115,197,199
123,188,196
129,193,195
147,192,191
147,191,199
148,194,204
158,185,211
166,198,214
175,194,209
191,191,216
198,195,226
220,189,228
234,195,238
249,197,232
272,191,230
291,200,223
326,194,225
352,197,221
376,199,213
405,190,209
421,198,206
446,191,205
465,189,207
486,200,203
511,198,213
529,204,222
554,201,248
569,201,272
578,204,295
589,203,332
588,204,337
595,197,355
600,203,363
602,194,368
614,184,381
627,180,375
635,182,359
645,175,326
662,174,309
679,170,289
692,174,300
701,172,287
718,179,268
728,186,255
738,193,260
743,194,247
753,214,244
759,225,249
760,244,258
756,254,241
760,271,254
759,288,282
757,300,295
752,294,278
755,309,251
751,307,234
744,311,220
735,304,208
731,310,198
725,322,188
715,330,180
700,324,172
691,332,168
679,337,165
663,334,162
128,169,229
121,167,220
120,171,211
114,168,203
111,171,199
107,176,189
107,174,186
112,178,181
108,175,177
103,183,175
100,189,168
94,188,169
89,194,167
86,196,165
81,201,169
79,205,163
76,205,167
74,210,166
75,201,164
76,202,165
74,203,159
78,199,163
79,202,160
82,193,155
89,197,161
90,194,161
102,194,156
103,203,158
111,199,160
117,209,170
122,212,181
129,212,187
129,224,195
139,218,205
147,222,196
150,229,185
167,226,192
176,239,201
195,238,195
215,242,189
228,244,183
255,240,177
273,246,174
300,235,168
316,237,168
325,241,162
349,229,161
357,233,162
375,222,156
389,225,155
392,225,158
404,223,153
406,222,155
409,219,149
411,217,150
406,219,145
413,217,148
411,218,154
415,219,157
429,213,138
443,217,151
456,217,154
468,218,158
488,214,152
503,215,150
517,213,151
530,215,152
553,207,149
569,205,148
581,206,150
589,204,144
606,190,143
617,187,143
621,185,143
624,184,142
636,178,141
641,180,140
643,178,146
644,169,142
655,166,155
658,168,161
659,169,163
658,163,160
667,163,163
670,164,164
673,167,170
677,160,168
689,165,166
699,171,164
703,169,158
118,155,172
112,153,174
112,154,172
106,155,169
104,157,169
103,159,161
95,159,161
96,163,160
89,162,157
87,165,159
83,166,157
80,164,154
78,166,163
76,165,151
74,169,151
72,167,152
73,164,145
70,167,144
70,166,140
72,169,141
69,170,141
73,166,138
71,170,139
73,168,137
75,163,138
73,173,135
74,172,136
72,175,136
73,170,135
74,172,140
71,177,137
71,174,139
70,177,141
70,173,140
73,175,144
69,179,139
72,175,143
74,179,143
74,170,138
75,180,140
77,186,137
89,184,136
110,189,137
136,185,137
124,188,138
118,198,138
154,195,139
157,205,134
157,206,143
159,212,143
159,220,153
168,222,154
174,236,163
188,238,167
202,246,175
215,259,189
237,258,191
252,263,196
281,268,203
319,269,204
322,277,213
351,272,213
376,270,228
413,263,225
450,260,227
479,254,242
531,242,253
578,236,247
631,231,238
679,225,245
732,209,209
770,208,205
800,203,194
821,193,187
841,185,178
847,180,173
839,179,166
829,171,160
815,171,156
796,167,153
774,169,152
756,163,150
746,163,146
734,169,145
722,169,142
716,182,146
717,193,147
716,208,156
713,219,162
718,244,171
124,156,146
122,158,145
123,157,148
120,155,145
122,158,147
117,156,145
114,161,146
116,162,151
107,159,150
106,164,152
104,161,148
101,163,148
99,166,150
91,163,150
88,182,155
83,169,156
81,174,160
77,182,165
72,180,163
76,186,170
75,188,170
76,190,173
79,195,175
109,192,168
106,198,175
110,198,174
114,203,172
116,209,177
123,210,175
124,210,178
134,213,177
143,218,178
145,225,188
164,226,212
173,233,193
183,236,192
201,244,194
216,254,204
246,252,201
262,260,207
285,260,218
309,263,220
333,267,241
369,256,242
398,259,235
434,259,232
474,260,235
505,265,240
552,259,237
591,265,241
641,264,245
691,263,242
731,263,250
775,254,244
805,255,246
837,251,242
870,241,236
894,239,231
904,239,217
918,226,204
922,224,194
915,215,187
898,218,175
889,207,168
870,208,176
861,204,166
844,203,169
840,193,173
834,184,181
830,185,190
821,177,207
823,172,214
823,169,225
820,177,234
812,168,249
814,181,251
812,188,251
810,196,252
803,205,252
809,222,238
813,247,226
814,271,215
812,279,204
818,304,191
824,323,182
827,345,178
827,351,169
834,376,165
837,395,162
834,412,157
87,162,190
72,164,193
70,162,198
70,169,200
71,169,204
73,166,212
72,169,208
73,163,222
72,171,218
73,169,218
75,167,222
74,168,212
75,164,218
70,165,210
71,165,206
69,164,203
70,161,198
70,159,198
67,158,189
74,158,190
72,155,193
70,152,192
70,149,201
67,149,196
67,156,205
65,153,211
67,152,208
71,152,218
75,149,219
79,151,220
76,151,227
77,153,226
80,153,238
111,149,238
109,152,243
108,151,253
109,152,253
103,159,268
101,158,271
102,158,276
105,164,291
118,164,295
120,168,308
111,161,305
104,170,308
99,168,318
101,172,316
105,166,333
122,169,338
117,172,347
131,175,359
133,176,363
126,170,377
131,179,379
143,177,384
145,178,397
157,177,401
165,185,411
191,181,414
198,187,422
229,195,435
265,192,442
292,200,462
331,195,453
369,196,449
403,202,459
463,198,461
508,202,472
540,207,483
563,209,488
591,198,489
604,206,487
607,212,495
608,218,498
615,210,492
612,213,489
601,220,485
584,221,505
572,216,451
556,216,463
538,219,461
523,219,472
517,213,472
512,207,477
503,209,473
500,209,490
503,204,484
507,199,494
506,196,488
511,190,483
347,156,136
352,158,139
356,156,134
356,156,136
354,156,134
360,154,134
362,155,138
363,158,135
360,154,138
364,155,136
355,157,136
357,155,140
354,154,137
346,154,150
348,158,134
336,154,150
332,161,140
324,158,137
316,147,142
318,156,139
311,154,146
300,156,153
289,157,154
273,156,161
265,155,157
259,150,163
253,154,164
241,155,162
228,155,162
221,155,152
206,151,161
199,149,162
200,151,157
192,154,157
185,156,152
178,158,152
170,161,153
190,160,151
180,164,147
167,167,151
158,169,148
161,173,151
167,178,153
157,176,157
142,183,162
132,179,160
132,190,170
127,191,185
129,197,194
131,213,206
147,214,211
159,226,217
172,246,235
197,248,247
226,249,248
260,253,256
291,259,267
335,254,269
378,243,269
417,234,266
436,230,267
461,223,259
480,219,252
492,216,244
495,217,237
504,217,223
515,216,210
530,215,207
538,217,199
558,214,197
579,210,195
604,209,197
614,209,212
639,208,220
663,202,227
683,202,234
696,201,245
718,197,255
739,189,260
757,187,265
769,186,271
787,180,270
808,178,269
822,174,262
832,168,254
847,165,246
863,164,232
872,164,231
875,161,217
886,157,203
175,237,282
177,227,287
183,222,294
186,219,303
187,206,296
198,203,293
200,197,282
204,194,273
216,190,261
228,185,246
223,185,237
218,175,222
219,181,213
220,173,208
206,170,199
196,167,190
196,167,181
194,166,179
197,165,169
190,163,161
180,160,158
196,156,158
184,160,159
175,158,158
178,152,156
180,158,168
184,158,173
169,163,198
163,161,226
151,164,234
141,162,256
132,175,261
124,179,276
116,177,283
108,187,288
101,188,299
95,207,298
96,212,286
91,218,273
95,233,254
93,231,252
96,246,232
100,255,223
99,260,214
103,276,204
101,282,203
103,301,201
101,310,208
96,311,230
100,325,252
94,323,287
96,333,321
96,340,357
93,337,406
98,350,441
97,351,489
104,363,520
112,366,556
120,370,589
131,366,600
155,374,584
178,373,567
203,378,548
230,362,540
268,368,518
300,373,505
335,370,500
368,359,510
410,358,515
447,352,526
487,337,547
523,327,573
567,327,597
603,318,623
637,307,653
665,294,683
698,288,701
725,276,718
740,263,734
757,255,744
775,254,748
790,247,755
795,238,764
800,234,771
812,228,767
816,224,765
813,211,770
810,214,768
814,215,759
810,206,748
83,226,244
81,217,237
80,219,239
78,210,237
78,211,235
77,211,238
73,206,228
73,205,228
72,199,220
71,202,215
70,201,210
65,197,204
73,198,198
76,198,198
75,198,186
75,199,184
73,197,174
75,196,172
74,195,166
78,192,162
78,187,176
76,184,159
77,184,158
75,178,155
76,176,165
73,172,164
71,175,166
68,175,176
66,166,188
67,168,200
72,164,202
78,162,233
76,164,217
83,158,231
86,156,238
85,159,246
111,156,254
108,160,261
108,155,266
107,157,270
101,155,259
98,151,269
94,153,268
96,142,273
101,156,278
102,151,273
113,165,276
117,168,265
128,177,255
141,186,245
145,193,228
160,204,217
158,209,209
175,220,197
194,221,190
208,220,183
233,227,176
248,228,174
270,230,174
298,237,174
317,229,180
350,233,174
374,225,175
407,242,173
441,240,178
468,234,193
508,237,204
538,233,216
577,222,238
618,231,255
654,231,247
680,230,254
702,224,267
726,226,269
747,221,284
760,219,298
769,211,322
789,208,334
802,204,354
810,201,370
815,192,396
824,186,411
829,184,427
829,178,440
819,175,456
819,172,454
812,173,450
802,170,445
791,164,447
786,163,436
74,249,212
79,243,203
83,249,200
85,254,200
90,250,187
81,258,185
90,252,182
86,253,181
84,254,184
78,253,181
74,259,185
76,255,185
82,256,189
81,261,194
80,260,191
85,269,200
81,259,198
85,265,198
82,270,203
93,270,204
100,280,204
135,275,201
132,278,197
129,280,197
122,275,193
121,283,195
115,275,187
131,275,185
133,278,179
131,269,174
124,274,166
115,265,163
111,266,158
105,265,154
100,255,155
96,260,151
90,252,161
86,246,162
81,237,157
80,224,152
75,213,149
74,209,152
72,204,155
69,200,150
70,208,147
66,208,148
68,219,150
69,240,150
66,239,162
74,260,165
74,260,184
89,280,191
104,287,199
123,293,210
151,301,221
174,305,224
207,320,229
236,326,236
265,331,242
300,345,239
323,338,242
358,351,233
386,356,237
414,352,240
442,362,226
462,353,227
491,366,218
516,364,222
536,362,225
555,355,230
577,364,227
592,362,235
603,367,243
615,352,255
626,348,257
641,341,265
646,326,277
651,314,284
665,313,283
676,306,288
676,290,299
686,281,307
696,270,308
703,274,312
702,267,314
703,258,317
709,258,308
707,245,306
699,236,306
692,230,306
103,207,134
104,216,130
100,208,130
101,216,132
102,220,135
100,222,136
109,226,139
108,220,140
108,226,145
110,233,152
109,231,153
114,240,165
114,231,174
114,237,170
118,243,167
115,239,167
118,248,160
112,246,157
110,254,156
113,264,152
109,261,153
115,273,164
111,270,158
107,272,178
113,279,196
108,269,208
111,276,206
107,263,222
98,262,221
98,264,219
92,251,199
86,247,189
83,233,187
80,223,178
77,214,172
82,208,168
87,205,171
108,212,180
128,218,170
148,215,207
178,229,221
195,228,243
222,249,264
245,259,270
265,260,283
294,276,283
313,278,297
339,288,295
364,300,304
380,300,310
409,315,302
426,317,306
452,330,299
472,339,294
488,337,296
512,352,287
529,358,289
544,353,275
559,357,260
577,362,258
591,356,265
591,347,279
597,341,290
604,338,291
604,327,307
592,316,302
594,310,302
590,308,293
581,302,294
569,293,301
555,291,304
547,287,291
538,276,295
524,266,295
511,264,301
505,257,292
490,254,287
471,241,288
455,228,284
442,229,280
420,221,279
393,209,284
370,200,282
349,198,280
326,195,274
301,182,279
282,179,275
263,178,273
248,174,275
226,168,281
147,144,125
142,148,128
143,146,125
141,149,126
136,150,128
126,148,124
130,152,128
129,147,126
125,150,127
118,151,132
113,150,132
109,148,136
116,149,137
108,149,142
108,152,148
119,150,144
123,151,145
121,151,140
117,153,140
111,152,139
103,150,135
99,157,139
94,153,140
94,158,141
91,155,153
86,153,149
82,152,148
80,154,146
79,153,146
75,150,149
74,151,145
72,156,145
73,157,158
76,160,174
75,160,210
84,168,200
88,173,201
93,182,211
98,191,225
98,193,248
105,212,238
106,219,260
111,238,266
111,253,269
105,263,282
104,284,309
97,299,295
96,321,288
98,338,283
94,346,285
97,361,276
98,363,270
106,378,249
114,379,259
117,376,252
132,381,242
142,378,231
160,379,224
179,375,215
190,368,209
211,371,199
226,366,212
242,356,208
267,363,211
291,366,214
301,360,240
315,363,252
342,372,281
353,363,292
366,357,315
378,347,338
396,346,370
407,340,400
416,329,390
424,319,400
437,317,404
448,305,417
456,298,421
466,282,434
480,279,423
490,269,431
498,256,429
509,249,421
526,236,405
539,229,410
545,214,411
554,208,400
567,206,395
581,197,390
580,189,398
81,189,191
79,184,194
78,180,194
84,179,196
80,180,189
80,181,187
81,172,196
78,175,191
78,168,196
73,168,197
72,167,198
73,166,208
71,162,207
73,159,213
74,157,214
77,156,218
78,156,224
76,155,223
73,152,230
71,148,231
68,153,230
66,152,236
66,151,233
65,148,235
60,156,227
63,171,224
61,171,225
61,192,216
60,203,220
59,234,212
60,257,218
59,281,224
61,306,221
60,326,221
61,357,208
64,376,227
62,393,221
64,418,216
64,427,211
67,449,206
68,463,200
67,465,201
70,480,194
65,479,200
74,493,189
84,499,185
86,503,183
103,514,177
110,518,175
129,531,172
143,535,172
149,528,167
164,533,161
168,525,164
182,527,157
193,519,158
201,502,150
215,502,146
224,487,143
237,483,143
249,475,140
256,459,138
276,456,136
288,437,135
306,428,131
326,415,132
340,394,132
365,382,128
379,364,127
400,356,126
413,342,129
425,314,129
442,295,133
465,273,133
482,254,132
498,236,128
517,227,128
536,217,134
552,215,135
565,216,131
584,208,129
603,201,128
617,197,128
628,190,126
644,188,124
664,184,123
678,177,125
681,172,123
695,171,122
704,167,122
92,167,287
88,162,301
91,163,306
90,160,312
87,157,326
91,159,326
86,155,336
86,155,341
89,154,346
87,153,355
89,149,351
87,151,354
86,151,350
88,149,333
82,151,340
100,149,328
92,149,321
90,145,302
102,150,291
95,148,284
94,146,269
100,146,267
105,147,257
99,147,255
102,146,263
122,147,264
116,146,275
150,145,285
142,145,293
133,146,304
137,146,310
133,146,321
141,150,325
143,152,327
143,151,333
162,157,341
163,156,360
175,168,336
189,175,334
198,179,343
216,190,328
235,193,353
255,214,335
274,234,320
280,258,320
298,294,303
303,324,304
313,365,284
315,389,263
307,400,266
317,414,265
313,412,276
315,404,276
312,392,298
301,373,311
302,351,329
296,332,356
294,317,378
296,298,394
293,279,436
304,269,436
311,264,450
324,252,463
332,236,494
353,235,502
375,218,528
390,212,547
407,199,575
431,188,589
454,184,579
471,182,601
488,178,606
513,172,576
535,168,595
551,169,606
564,162,637
582,159,633
596,158,643
606,162,626
616,157,638
625,156,636
643,158,641
650,159,648
658,163,649
669,161,642
674,167,675
672,171,664
672,175,648
676,176,650
678,183,630
131,222,134
124,221,133
123,218,130
122,221,130
117,218,124
114,228,125
115,231,127
110,224,127
114,235,126
109,228,125
110,231,125
112,230,127
109,223,123
110,231,125
104,217,123
109,216,124
107,214,125
107,209,121
113,210,121
110,199,119
124,202,119
125,206,121
117,200,120
117,204,117
115,198,122
120,206,121
127,211,124
125,207,134
137,211,130
135,208,141
142,226,136
148,237,134
151,242,140
161,261,141
164,267,149
173,291,160
186,313,172
201,328,171
213,353,187
219,363,189
233,383,188
243,399,186
247,414,179
262,440,171
265,456,164
275,481,167
279,498,155
271,510,179
269,534,188
256,537,194
258,557,198
262,551,205
268,539,219
279,525,240
295,520,242
313,507,258
326,490,270
342,475,288
361,463,291
385,450,314
405,430,327
430,411,349
455,396,353
480,363,369
496,333,380
512,300,382
534,279,395
556,261,404
565,252,420
580,242,430
596,232,438
606,230,445
615,239,464
624,246,489
634,246,488
640,255,490
638,267,496
639,284,500
643,290,490
645,305,508
640,323,521
641,356,529
637,405,531
642,452,543
636,495,554
631,533,555
630,554,556
624,580,556
613,609,556
604,624,552
61,272,148
60,270,146
60,260,154
58,260,148
59,255,160
58,244,159
60,245,154
70,235,158
72,232,156
73,226,156
73,221,160
73,218,158
79,208,165
78,207,162
77,204,150
81,195,163
80,195,157
80,187,157
77,187,154
104,171,157
128,181,156
128,181,154
119,175,155
114,182,153
105,183,140
99,181,155
92,183,155
88,173,162
88,184,163
84,189,173
81,191,204
84,203,216
79,207,255
83,221,287
88,235,266
89,242,262
100,270,252
105,286,236
122,319,227
137,340,218
149,357,207
168,383,202
179,399,207
209,421,205
225,430,197
245,435,197
264,451,200
276,451,204
292,468,219
304,467,239
310,461,249
321,463,253
335,447,277
350,445,293
359,427,309
365,406,318
376,397,335
377,375,355
393,368,370
403,359,381
406,343,392
416,340,388
421,319,379
433,312,362
448,302,358
460,281,332
470,263,335
490,240,302
505,223,290
515,215,289
528,205,296
545,197,307
558,198,336
563,204,368
572,202,403
581,195,429
582,199,459
576,202,502
573,199,521
572,202,540
568,204,560
557,210,588
548,216,595
544,212,591
533,221,596
519,229,603
507,237,601
501,236,591
490,236,583
475,240,591
104,327,372
104,349,372
108,364,378
117,369,392
121,389,395
118,395,409
127,412,406
126,425,399
144,431,397
121,453,384
123,463,382
133,482,376
125,498,372
117,504,371
111,531,353
131,546,347
137,575,333
131,596,321
127,611,343
119,641,341
114,653,360
108,674,379
106,686,429
99,698,421
99,714,405
96,712,378
91,725,351
90,734,339
92,728,319
87,734,293
89,726,294
88,726,308
87,717,326
85,699,315
80,688,340
77,666,355
77,656,348
78,637,337
80,608,312
88,597,319
84,571,306
91,553,316
89,526,301
87,485,278
82,453,262
90,410,245
86,375,236
88,349,230
88,337,215
83,329,223
85,327,218
81,329,216
79,341,212
75,363,213
82,378,219
87,404,212
105,415,212
123,432,206
139,464,192
165,475,192
185,498,182
220,510,195
253,523,198
287,523,195
329,517,200
369,522,222
409,525,215
461,513,211
516,506,211
561,495,208
606,490,201
655,475,207
705,473,201
740,473,202
775,474,206
812,467,198
847,467,216
869,469,229
884,479,230
907,482,251
926,489,254
936,495,252
948,502,257
962,508,259
969,517,267
970,537,282
970,564,283
971,571,297
969,580,321
971,591,353
192,310,190
192,306,186
190,309,205
190,303,197
190,296,193
192,316,198
187,310,186
193,318,186
194,320,189
196,317,191
209,326,212
216,316,219
231,324,250
241,324,256
256,319,259
276,327,271
287,322,270
308,339,283
315,338,277
329,327,269
355,328,275
366,319,264
390,315,265
406,309,258
418,297,253
430,299,261
431,294,250
472,299,255
471,290,243
484,277,225
478,265,216
466,250,205
474,238,208
483,231,204
483,222,220
491,227,231
494,215,220
514,214,251
540,209,295
553,203,314
577,212,316
591,206,311
615,204,339
615,196,327
610,192,328
612,184,356
603,174,343
602,172,336
594,172,324
572,177,303
570,175,288
572,178,272
580,191,250
591,192,236
602,195,221
610,212,204
617,243,190
633,276,179
644,329,166
644,401,169
638,456,161
639,496,151
637,544,148
633,592,142
618,636,136
614,674,143
614,719,155
619,766,174
630,802,182
653,817,187
674,838,189
697,857,202
715,873,219
743,869,215
765,871,206
778,867,199
786,874,193
796,857,203
793,845,200
774,833,204
752,815,206
735,780,206
715,743,192
693,727,179
669,705,171
650,672,161
619,636,158
591,611,163
566,566,156
550,530,143
61,147,126
57,143,127
59,142,130
61,142,132
67,146,139
66,143,137
71,147,141
70,149,141
74,148,141
71,146,141
74,143,135
73,143,135
69,141,130
69,143,133
72,145,134
69,144,130
69,145,137
74,143,137
74,151,149
114,147,173
113,139,196
119,141,192
118,143,180
110,144,172
108,137,169
109,136,162
106,139,157
104,139,151
105,136,152
102,143,155
107,143,153
109,152,157
111,155,155
117,157,152
119,164,152
129,157,146
128,164,148
142,160,155
157,161,149
167,166,149
171,163,157
172,167,174
176,160,165
191,162,175
199,171,206
203,174,216
206,185,226
211,201,255
217,207,250
215,232,256
222,234,236
226,251,230
234,276,216
246,292,205
247,320,193
260,339,180
269,371,172
282,403,162
303,433,161
323,491,149
346,542,147
374,583,150
396,629,166
417,680,169
446,718,184
479,738,189
514,760,197
551,788,209
587,806,209
623,820,201
660,833,194
690,852,194
717,866,191
745,871,193
761,875,194
770,872,196
781,855,196
789,833,191
795,808,193
791,784,209
786,756,222
775,732,230
758,718,236
728,702,247
709,677,247
683,653,251
659,634,262
626,620,280
601,595,301
574,571,317